0.000000
0.000000
0.000000
0.000000
0.000000
0.000000
0.000000
0.000000
0.000000
0.000000
0.000000
0.000000
0.000000
0.000000
0.000000
0.000000
0.000000
0.000000
0.000000
0.000000
0.000000
0.000000
0.000000
0.000000
0.000000
0.000000
0.000000
0.000000
0.000000
0.000000
0.000000
0.000000
0.000000
0.000000
0.000000
0.000000
0.000000
0.000000
0.000000
0.000000
0.000000
0.000000
0.000000
0.000000
0.000000
0.000000
0.000000
0.000000
0.000000
0.000000
0.000000
0.000000
0.000000
0.000000
0.000000
0.000000
0.000000
0.000000
0.000000
0.000000
0.000000
0.000000
0.000000
0.000000
0.000000
0.000000
0.000000
0.000000
0.000000
0.000000
0.000000
0.000000
0.000000
0.000000
0.000000
0.000000
0.000000
0.000000
0.000000
0.000000
0.000000
0.000000
0.000000
0.000000
0.000000
0.000000
0.000000
0.000000
0.000000
0.000000
0.000000
0.000000
0.000000
0.000000
0.000000
0.000000
0.000000
0.000000
0.000000
0.000000
0.000000
0.000000
0.000000
0.000000
0.000000
0.000000
0.000000
0.000000
0.000000
0.000000
0.000000
0.000000
0.000000
0.000000
0.000000
0.000000
0.000000
0.000000
0.000000
0.000000
0.000000
0.000000
0.000000
0.000000
0.000000
0.000000
0.000000
0.000000
0.000000
0.000000
0.000000
0.000000
0.000000
0.000000
0.000000
0.000000
0.000000
0.000000
0.000000
0.000000
0.000000
0.000000
0.000000
0.000000
0.000000
0.000000
0.000000
0.000000
0.000000
0.000000
0.000000
0.000000
0.000000
0.000000
0.000000
0.000000
0.000000
0.000000
0.000000
0.000000
0.000000
0.000000
0.000000
0.000000
0.000000
0.000000
0.000000
0.000000
0.000000
0.000000
0.000000
0.000000
0.000000
0.000000
0.000000
0.000000
0.000000
0.000000
0.000000
0.000000
0.000000
0.000000
0.000000
0.000000
0.000000
0.000000
0.000000
0.000000
0.000000
0.000000
0.000000
0.000000
0.000000
0.000000
0.000000
0.000000
0.000000
0.000000
0.000000
0.000000
0.000000
0.000000
0.000000
0.000000
0.000000
0.000000
0.000000
0.000000
0.000000
0.000000
0.000000
0.000000
0.000000
0.000000
0.000000
0.000000
0.000000
0.000000
0.000000
0.000000
0.000000
0.000000
0.000000
0.000000
0.000000
0.000000
0.000000
0.000000
0.000000
0.000000
0.000000
0.000000
0.000000
0.000000
0.000000
0.000000
0.000000
0.000000
0.000000
0.000000
0.000000
0.000000
0.000000
0.000000
0.000000
0.000000
0.000000
0.000000
0.000000
0.000000
0.000000
0.000000
0.000000
0.000000
0.000000
0.000000
0.000000
0.000000
0.000000
0.000000
0.000000
0.000000
0.000000
0.000000
0.000000
0.000000
0.000000
0.000000
0.000000
0.000000
0.000000
0.000000
0.000000
0.000000
0.000000
0.000000
0.000000
0.000000
0.000000
0.000000
0.000000
0.000000
0.000000
0.000000
0.000000
0.000000
0.000000
0.000000
0.000000
0.000000
0.000000
0.000000
0.000000
0.000000
0.000000
0.000000
0.000000
0.000000
0.000000
0.000000
0.000000
0.000000
0.000000
0.000000
0.000000
0.000000
0.000000
0.000000
0.000000
0.000000
0.000000
0.000000
0.000000
0.000000
0.000000
0.000000
0.000000
0.000000
0.000000
0.000000
0.000000
0.000000
0.000000
0.000000
0.000000
0.000000
0.000000
0.000000
0.000000
0.000000
0.000000
0.000000
0.000000
0.000000
0.000000
0.000000
0.000000
0.000000
0.000000
0.000000
0.000000
0.000000
0.000000
0.000000
0.000000
0.000000
0.000000
0.000000
0.000000
0.000000
0.000000
0.000000
0.000000
0.000000
0.000000
0.000000
0.000000
0.000000
0.000000
0.000000
0.000000
0.000000
0.000000
0.000000
0.000000
0.000000
0.000000
0.000000
0.000000
0.000000
0.000000
0.000000
0.000000
0.000000
0.000000
0.000000
0.000000
0.000000
0.000000
0.000000
0.000000
0.000000
0.000000
0.000000
0.000000
0.000000
0.000000
0.000000
0.000000
0.000000
0.000000
0.000000
0.000000
0.000000
0.000000
0.000000
0.000000
0.000000
0.000000
0.000000
2126.401596
4143.246201
5826.439970
2778.763678
3605.420973
5323.473784
1882.388298
990.992781
3709.998100
2041.743921
-741.999620
1145.368541
652.362082
-2141.341185
-328.670973
502.966185
-1693.153495
-1190.187310
1100.549772
-229.073708
-2101.502280
-49.798632
-298.791793
-2415.233663
59.758359
871.476064
-2629.367781
-1703.113222
856.536474
-1294.764438
-2440.132979
298.791793
572.684271
-1877.408435
-1105.529635
976.053191
-981.033055
-1718.052812
851.556611
-901.355243
-1877.408435
1045.771277
318.711246
-2221.018997
-741.999620
1075.650456
-2176.200228
-2982.938070
806.737842
139.436170
-2221.018997
-851.556611
-253.973024
-1648.334726
-826.657295
378.469605
-1155.328267
-2460.052432
219.113982
308.751520
-2465.032295
-199.194529
687.221125
-1787.770897
-1374.442249
507.946049
-746.979483
-1747.931991
229.073708
-532.845365
-2589.528875
-458.147416
418.308511
-2151.300912
-702.160714
1339.583207
-901.355243
-766.898936
1264.885258
-478.066869
-1309.704027
1937.166793
2315.636398
-1100.549772
-677.261398
1513.878419
-273.892477
-2036.764058
-647.382219
-453.167553
-1777.811170
-124.496581
398.389058
-2285.757219
-1588.576368
577.664134
-1414.281155
-2066.643237
821.677432
-308.751520
-3256.830547
-1155.328267
746.979483
-3480.924392
-4143.246201
1962.066109
5433.030775
10387.994681
18664.527356
18415.534195
7300.479483
-986.012918
-1583.596505
-1747.931991
-1279.824848
288.832067
-727.060030
-876.455927
1035.811550
-483.046733
-1852.509119
-64.738222
313.731383
-697.180851
154.375760
1369.462386
-194.214666
-1180.227584
1025.851824
761.919073
-1424.240881
527.865502
1309.704027
-1449.140198
-458.147416
2230.978723
-632.442629
-1384.401976
2529.770517
1180.227584
-856.536474
1787.770897
2126.401596
-712.120441
1125.449088
3147.273556
-44.818769
-119.516717
2798.683131
1459.099924
-448.187690
2425.193389
3520.763298
1419.261018
2609.448328
4038.669073
1782.791033
2151.300912
5233.836246
4123.326748
2335.555851
3849.434271
4715.930471
3212.011778
4362.360182
5343.393237
2808.642857
3197.072188
4895.205547
3535.702888
2250.898176
2529.770517
1777.811170
99.597264
1244.965805
1872.428571
-1215.086626
-971.073328
1907.287614
224.093845
-2056.683511
-766.898936
-14.939590
-1314.683891
-976.053191
174.295213
-1837.569529
-2161.260638
398.389058
-1095.569909
-3017.797112
283.852204
537.825228
-2126.401596
-761.919073
69.718085
-1130.428951
-1230.026216
-522.885638
-338.630699
-1085.610182
-861.516337
-19.919453
-1752.911854
-1140.388678
637.422492
-1777.811170
-1334.603343
448.187690
-1618.455547
-1892.348024
-114.536854
-338.630699
-2146.321049
-1110.509498
607.543313
-1374.442249
-1698.133359
323.691109
-433.248100
-2474.992021
-995.972644
647.382219
-2031.784195
-1150.348404
1065.690729
-2395.314210
-2479.971884
627.462766
-542.805091
-3132.333967
-1728.012538
54.778495
-1259.905395
-512.925912
502.966185
-1249.945669
-1508.898556
174.295213
-891.395517
-1887.368161
692.200988
577.664134
-1523.838146
-507.946049
1678.213906
323.691109
-1623.435410
1035.811550
906.335106
-2584.549012
-582.643997
542.805091
-1962.066109
-796.778116
493.006459
-1638.375000
-2161.260638
388.429331
-861.516337
-2967.998480
-931.234422
-373.489742
-2046.723784
-1409.301292
234.053571
-1294.764438
-2141.341185
-587.623860
-2240.938450
-2743.904635
5457.930091
13131.899316
16094.917933
16343.911094
7484.734422
-3485.904255
-3575.541793
114.536854
-806.737842
-1374.442249
398.389058
393.409195
-2036.764058
-1210.106763
1235.006079
-572.684271
-1563.677052
1190.187310
682.241261
-1807.690350
413.328647
1528.818009
-1359.502660
-448.187690
1479.019377
-318.711246
-343.610562
1419.261018
-308.751520
-791.798252
1757.891717
692.200988
-1160.308131
886.415653
2081.582827
239.033435
443.207827
2813.622720
1319.663754
-1553.717325
1394.361702
2888.320669
-134.456307
1045.771277
3600.441109
1464.079787
572.684271
3744.857143
3386.306991
1693.153495
3724.937690
3391.286854
1389.381839
3525.743161
5532.628040
3590.481383
2863.421353
4785.648556
4158.185790
2778.763678
4969.903495
5184.037614
2056.683511
3027.756839
4720.910334
1802.710486
627.462766
2171.220365
527.865502
-816.697568
796.778116
921.274696
-1274.844985
-1210.106763
896.375380
-627.462766
-1110.509498
1010.912234
-741.999620
-2709.045593
-9.959726
921.274696
-2101.502280
-1235.006079
1065.690729
-1623.435410
-2001.905015
1100.549772
-542.805091
-2021.824468
234.053571
388.429331
-1414.281155
-433.248100
293.811930
-1409.301292
-1110.509498
522.885638
-189.234802
-1593.556231
-114.536854
99.597264
-2539.730243
-1145.368541
1354.522796
-707.140578
-1339.583207
119.516717
-1095.569909
-1708.093085
194.214666
-224.093845
-1593.556231
-313.731383
244.013298
-1747.931991
-1603.515957
861.516337
-896.375380
-2933.139438
-453.167553
463.127280
-1817.650076
-1548.737462
497.986322
-1125.449088
-1648.334726
1055.731003
-612.523176
-3142.293693
39.838906
363.530015
-2604.468465
-214.134119
1728.012538
-806.737842
-941.194149
1115.489362
358.550152
-448.187690
1474.039514
1210.106763
-2046.723784
-1434.200608
109.556991
-2305.676672
-2046.723784
204.174392
-956.133739
-2405.273936
-1055.731003
-478.066869
-2644.307371
-2639.327508
-333.650836
-1543.757599
-2300.696809
712.120441
-1364.482523
-4108.387158
-1259.905395
1862.468845
5418.091185
11623.000760
16792.098784
11926.772416
572.684271
-3276.750000
-2201.099544
-3540.682751
-1055.731003
-64.738222
-2943.099164
-239.033435
1399.341565
-2221.018997
-2280.777356
1429.220745
288.832067
-1927.207067
433.248100
-104.577128
-2450.092705
-323.691109
916.294833
-1180.227584
-1693.153495
453.167553
-89.637538
-1927.207067
244.013298
851.556611
-1449.140198
-537.825228
1020.871960
-1309.704027
-1294.764438
2176.200228
652.362082
-1583.596505
662.321809
1518.858283
-836.617021
69.718085
2430.173252
-54.778495
164.335486
3002.857523
811.717705
-154.375760
2639.327508
2898.280395
791.798252
981.033055
3097.474924
1782.791033
866.496201
3859.393997
3446.065350
2435.153116
4053.608663
3655.219605
1732.992401
2026.804331
3431.125760
1837.569529
49.798632
1942.146657
1364.482523
-2076.602964
0.000000
308.751520
-3575.541793
-1080.630319
1309.704027
-1533.797872
-2011.864742
-607.543313
-1523.838146
-2743.904635
-677.261398
-204.174392
-2773.783815
-2076.602964
-886.415653
-2719.005319
-2400.294073
-204.174392
-1289.784574
-3002.857523
-1483.999240
-149.395897
-1942.146657
-1728.012538
453.167553
-1598.536094
-2295.716945
219.113982
-1220.066489
-2788.723404
-537.825228
-39.838906
-2455.072568
-1225.046353
906.335106
-1777.811170
-2460.052432
34.859043
-796.778116
-2141.341185
-69.718085
263.932751
-3221.971505
-2046.723784
1379.422112
-1623.435410
-2435.153116
946.174012
-722.080167
-2858.441489
-308.751520
59.758359
-2514.830927
-1434.200608
368.509878
-1812.670213
-2445.112842
323.691109
-1150.348404
-3490.884119
-333.650836
253.973024
-2604.468465
-308.751520
1673.234043
-1180.227584
-1439.180471
811.717705
-637.422492
-1912.267477
79.677812
-268.912614
-1862.468845
-1429.220745
-1130.428951
-2873.381079
-2878.360942
-981.033055
-2649.287234
-2992.897796
-717.100304
-2086.562690
-4043.648936
-2664.226824
-756.939210
-2465.032295
-3087.515198
-722.080167
-2206.079407
-4402.199088
-2534.750380
-527.865502
2514.830927
10368.075228
15691.549012
12300.262158
4825.487462
-1354.522796
-4561.554711
-3834.494681
-976.053191
-916.294833
-2803.662994
-1986.965426
-214.134119
-2086.562690
-2878.360942
-84.657675
-846.576748
-2803.662994
-1419.261018
-1200.147036
-2614.428191
-1742.952128
54.778495
-1493.958967
-1897.327888
268.912614
-856.536474
-2967.998480
-995.972644
388.429331
-1902.307751
-1045.771277
493.006459
-2096.522416
-1962.066109
1369.462386
-428.268237
-2250.898176
727.060030
109.556991
-1882.388298
343.610562
1309.704027
-1035.811550
-418.308511
1897.327888
89.637538
-781.838526
2216.039134
2275.797492
-124.496581
2001.905015
3675.139058
547.784954
801.757979
4063.568389
2365.435030
512.925912
3461.004939
3007.837386
119.516717
2375.394757
4297.621960
876.455927
-383.449468
2061.663374
756.939210
-961.113602
84.657675
-348.590426
-2151.300912
-1205.126900
453.167553
-2001.905015
-3226.951368
-512.925912
-1075.650456
-3470.964666
-502.966185
268.912614
-2514.830927
-512.925912
-109.556991
-2893.300532
-951.153875
1324.643617
-687.221125
-1588.576368
303.771657
652.362082
-1135.408815
-781.838526
483.046733
-1065.690729
-483.046733
2096.522416
-602.563450
-2758.844225
512.925912
761.919073
-1892.348024
-343.610562
1040.791413
-1299.744301
-1673.234043
273.892477
-1195.167173
-3007.837386
-463.127280
-901.355243
-2958.038754
-1483.999240
-1125.449088
-2305.676672
-2071.623100
-303.771657
-1668.254179
-4163.165653
-2106.482143
-1110.509498
-3426.145897
-2001.905015
-577.664134
-3416.186170
-4188.064970
-2066.643237
-2181.180091
-3849.434271
-2061.663374
-1130.428951
-3052.656155
-1977.005699
-527.865502
-2191.139818
-2455.072568
-184.254939
-1474.039514
-2858.441489
-194.214666
-622.482903
-3784.696049
-1737.972264
273.892477
-3859.393997
-3769.756459
-488.026596
-2554.669833
-3565.582067
-1394.361702
-1857.488982
-3515.783435
-2061.663374
-1115.489362
-3441.085486
-3157.233283
-1523.838146
-2674.186550
-3192.092325
-1857.488982
-3097.474924
-4999.782675
1688.173632
10383.014818
13221.536854
16035.159574
12419.778875
363.530015
-4636.252660
-1060.710866
-493.006459
-3281.729863
-1533.797872
597.583587
-2166.240502
-2026.804331
911.314970
-1583.596505
-4432.078267
-1175.247720
139.436170
-2206.079407
-1469.059650
-79.677812
-1593.556231
-2016.844605
-194.214666
-1210.106763
-2778.763678
-687.221125
109.556991
-1673.234043
-941.194149
54.778495
-1713.072948
-966.093465
1090.590046
-1379.422112
-2674.186550
517.905775
846.576748
-1787.770897
288.832067
2225.998860
-2330.575988
-2260.857903
2380.374620
1643.354863
209.154255
1488.979103
1957.086246
841.596884
1767.851444
3480.924392
1513.878419
1299.744301
4860.346505
3167.193009
662.321809
5164.118161
5916.077508
2141.341185
3774.736322
5701.943389
3092.495061
1832.589666
3909.192629
2116.441869
-657.341945
2380.374620
2549.689970
-781.838526
34.859043
896.375380
-1359.502660
-971.073328
597.583587
-74.697948
-607.543313
59.758359
393.409195
-1304.724164
-497.986322
926.254559
-941.194149
-288.832067
1563.677052
29.879179
-811.717705
1155.328267
1533.797872
-234.053571
911.314970
3037.716565
1060.710866
184.254939
2265.837766
1598.536094
642.402356
1449.140198
1454.120061
921.274696
1220.066489
2026.804331
662.321809
184.254939
2230.978723
1000.952508
-388.429331
1772.831307
1747.931991
-1279.824848
-59.758359
1723.032675
-478.066869
-453.167553
1454.120061
-154.375760
-2474.992021
184.254939
677.261398
-1698.133359
-273.892477
219.113982
-1369.462386
-1220.066489
283.852204
-811.717705
-2131.381459
-936.214286
-1713.072948
-2255.878040
-418.308511
-463.127280
-2250.898176
-1235.006079
846.576748
-1464.079787
-2554.669833
587.623860
293.811930
-2151.300912
-1220.066489
4.979863
-1419.261018
-1807.690350
-662.321809
-2624.387918
-3754.816869
-1314.683891
-1842.549392
-4372.319909
-2958.038754
-522.885638
-2315.636398
-3879.313450
-1474.039514
-1454.120061
-3949.031535
-1683.193769
-547.784954
-2723.985182
-2275.797492
-1847.529255
-2524.790653
1638.375000
11697.698708
17558.997720
15925.602584
9561.337386
164.335486
-3779.716185
-1683.193769
54.778495
-766.898936
-1185.207447
483.046733
-951.153875
-1922.227204
717.100304
423.288374
-2056.683511
-662.321809
1454.120061
-1040.791413
-1762.871581
1414.281155
268.912614
-2166.240502
438.227964
901.355243
-1962.066109
313.731383
3286.709726
741.999620
209.154255
2569.609422
1299.744301
343.610562
2001.905015
2415.233663
1065.690729
2021.824468
3067.595745
1683.193769
2489.931611
3510.803571
2211.059271
1663.274316
3655.219605
4272.722644
1942.146657
2773.783815
5238.816109
3555.622340
3306.629179
5408.131459
3899.232903
2903.260258
5169.098024
4566.534574
3565.582067
5617.285714
7171.003040
4138.266337
2096.522416
5876.238602
4865.326368
1638.375000
2798.683131
2758.844225
114.536854
-293.811930
1508.898556
-642.402356
-2494.911474
-49.798632
-1075.650456
-4143.246201
-1937.166793
-1329.623480
-4173.125380
-2918.199848
-1548.737462
-3585.501520
-4432.078267
-2405.273936
-2420.213526
-3879.313450
-1195.167173
-712.120441
-3874.333587
-1981.985562
134.456307
-2061.663374
-2340.535714
179.275076
-413.328647
-3271.770137
-438.227964
1220.066489
-2704.065729
-781.838526
1264.885258
-1653.314590
-1110.509498
816.697568
-423.288374
-1518.858283
453.167553
84.657675
-2360.455167
-497.986322
707.140578
-1887.368161
-2400.294073
-527.865502
-1678.213906
-2654.267097
-493.006459
-951.153875
-2430.173252
-1608.495821
-1080.630319
-1991.945289
-1728.012538
293.811930
-677.261398
-2704.065729
-622.482903
1354.522796
-29.879179
1130.428951
3714.977964
1882.388298
1643.354863
4925.084726
4681.071429
3675.139058
5980.815729
5926.037234
4407.178951
6175.030395
7370.197568
4935.044453
4342.440729
6588.359043
5328.453647
3311.609043
3973.930851
3670.159195
2524.790653
3052.656155
2888.320669
986.012918
771.878799
1937.166793
1454.120061
-89.637538
1000.952508
1483.999240
-1867.448708
-712.120441
1807.690350
-1429.220745
-3017.797112
-1523.838146
-448.187690
4073.528116
11742.517477
17688.474164
16294.112462
6936.949468
-1474.039514
-5124.279255
-3550.642477
-443.207827
-1802.710486
-3097.474924
-1757.891717
-2041.743921
-3615.380699
-3470.964666
-2649.287234
-3734.897416
-3675.139058
-1742.952128
-2395.314210
-5393.191869
-4402.199088
-2151.300912
-3690.078647
-3137.313830
-2639.327508
-4905.165274
-4471.917173
-2534.750380
-3067.595745
-4949.984043
-3456.025076
-2131.381459
-4989.822948
-4168.145517
-2126.401596
-5388.212006
-5378.252280
-2405.273936
-3919.152356
-4765.729103
-3112.414514
-3381.327128
-4775.688830
-3879.313450
-2987.917933
-4900.185410
-4412.158815
-1732.992401
-2474.992021
-3924.132219
-1752.911854
-1384.401976
-3067.595745
-941.194149
-59.758359
-1792.750760
-1349.542933
448.187690
268.912614
-976.053191
219.113982
478.066869
-1170.267857
-1319.663754
-1025.851824
-2728.965046
-2992.897796
-1638.375000
-3062.615881
-3919.152356
-2046.723784
-2106.482143
-4556.574848
-4178.105243
-2036.764058
-3774.736322
-3968.950988
-1852.509119
-3869.353723
-3744.857143
-1508.898556
-2001.905015
-3326.548632
-2878.360942
-1230.026216
-2529.770517
-3655.219605
-2514.830927
-2843.501900
-3192.092325
-916.294833
-373.489742
-2888.320669
-2290.737082
-727.060030
-2071.623100
-2390.334347
-891.395517
-1404.321429
-2669.206687
-1090.590046
-1160.308131
-3202.052052
-2201.099544
-1578.616641
-3296.669453
-2758.844225
-1060.710866
-2325.596125
-3256.830547
-1558.697188
-1663.274316
-3490.884119
-2604.468465
-1663.274316
-3331.528495
-4576.494301
-2460.052432
-2614.428191
-5353.352964
-3331.528495
-2594.508739
-5089.420213
-4974.883359
-5268.695289
-7464.814970
-6941.929331
-4815.527736
-6065.473404
-7519.593465
-5995.755319
-5846.359422
-6922.009878
-6404.104103
-5557.527356
-5766.681611
-6787.553571
-5970.856003
-5104.359802
-6697.916033
-6319.446429
-5691.983663
-7843.284574
-7449.875380
-5761.701748
-8231.713906
-9038.451748
-6857.271657
-8087.297872
-8874.116261
-6648.117401
-6184.990122
-7997.660334
-7056.466185
-5174.077888
-6677.996581
-6448.922872
-4611.353343
-5403.151596
-6120.251900
-4790.628419
-5298.574468
-7335.338526
-3027.756839
5632.225304
10168.880699
13824.100304
12977.523556
1080.630319
-6274.627660
-3520.763298
-2559.649696
-4307.581687
-3436.105623
-682.241261
-1399.341565
-2425.193389
-567.704407
-816.697568
-1862.468845
318.711246
697.180851
-896.375380
861.516337
2111.462006
293.811930
1115.489362
3799.635638
2803.662994
2021.824468
4093.447568
4262.762918
2913.219985
4795.608283
5766.681611
4272.722644
5363.312690
7713.808131
6259.688070
4940.024316
6951.889058
6842.332067
6015.674772
8281.512538
8605.203647
5383.232143
5881.218465
8316.371581
6603.298632
5308.534195
7599.271277
7405.056611
5303.554331
7330.358663
8465.767477
5527.648176
6189.969985
8351.230623
6613.258359
5428.050912
7096.305091
7868.183891
6289.567249
5731.822568
6389.164514
5174.077888
4232.883739
5482.829407
4496.816489
2569.609422
4272.722644
3202.052052
-263.932751
1907.287614
2938.119301
-532.845365
-478.066869
1279.824848
-517.905775
-1653.314590
328.670973
244.013298
-3226.951368
-2534.750380
-463.127280
-2320.616261
-1588.576368
44.818769
-1872.428571
-2743.904635
-527.865502
-951.153875
-3391.286854
-2111.462006
-1095.569909
-2031.784195
-1613.475684
-169.315350
-1264.885258
-2629.367781
-507.946049
-1414.281155
-4447.017857
-2674.186550
129.476444
-1528.818009
-1892.348024
258.952888
-1543.757599
-2723.985182
-811.717705
-1170.267857
-2450.092705
-1015.892097
-114.536854
-1932.186930
-1981.985562
49.798632
-1623.435410
-3231.931231
-966.093465
-786.818389
-2156.280775
-891.395517
368.509878
-1638.375000
-2086.562690
209.154255
-1205.126900
-2649.287234
-303.771657
69.718085
-1952.106383
-1254.925532
692.200988
-1498.938830
-2026.804331
1239.985942
468.107143
-921.274696
1185.207447
1095.569909
-956.133739
637.422492
1787.770897
-458.147416
-468.107143
1479.019377
717.100304
-2529.770517
-1608.495821
478.066869
-1563.677052
-1264.885258
368.509878
-1613.475684
-3192.092325
-1409.301292
-1583.596505
-3296.669453
-831.637158
-134.456307
-2783.743541
-1852.509119
-1045.771277
-3944.051672
-4945.004179
-1170.267857
3341.488222
8256.613222
16508.246581
17638.675532
5931.017097
-2405.273936
-2913.219985
-3500.843845
-2778.763678
-488.026596
-2230.978723
-3729.917553
-323.691109
-443.207827
-2938.119301
-990.992781
169.315350
-2031.784195
-1732.992401
-164.335486
-1379.422112
-1996.925152
129.476444
219.113982
-2151.300912
-1225.046353
-94.617401
-1782.791033
-1623.435410
-288.832067
-1055.731003
-1464.079787
1210.106763
901.355243
-1718.052812
-69.718085
1110.509498
-677.261398
-373.489742
1543.757599
144.416033
-995.972644
861.516337
786.818389
34.859043
1673.234043
2743.904635
1608.495821
1150.348404
3266.790274
3341.488222
2051.703647
4382.279635
5313.514058
2270.817629
3177.152736
5706.923252
3580.521657
4247.823328
6882.170973
5184.037614
3545.662614
5736.802432
5328.453647
1558.697188
2992.897796
4451.997720
1264.885258
1190.187310
3032.736702
587.623860
-1100.549772
1125.449088
1085.610182
-1150.348404
-248.993161
1130.428951
-707.140578
-946.174012
547.784954
-1244.965805
-2365.435030
582.643997
751.959347
-1952.106383
-607.543313
273.892477
-1887.368161
-1698.133359
-9.959726
-438.227964
-1907.287614
-209.154255
393.409195
-2211.059271
-737.019757
1015.892097
-1708.093085
-2624.387918
-189.234802
-632.442629
-2509.851064
-766.898936
39.838906
-2151.300912
-836.617021
229.073708
-2714.025456
-1762.871581
547.784954
-1384.401976
-2106.482143
567.704407
-981.033055
-3615.380699
-821.677432
517.905775
-2161.260638
-2400.294073
44.818769
-856.536474
-2629.367781
-273.892477
144.416033
-3067.595745
-1269.865122
1309.704027
-1633.395137
-2390.334347
831.637158
174.295213
-1593.556231
741.999620
891.395517
-642.402356
587.623860
1110.509498
-632.442629
-328.670973
1279.824848
-388.429331
-1593.556231
-244.013298
104.577128
-1389.381839
-1075.650456
333.650836
-1210.106763
-1508.898556
204.174392
-861.516337
-1952.106383
-253.973024
24.899316
-2131.381459
-1389.381839
642.402356
-1708.093085
-2928.159574
542.805091
3879.313450
8176.935410
16015.240122
18335.856383
8351.230623
-338.630699
-1100.549772
-3441.085486
-2076.602964
2699.085866
258.952888
-1553.717325
1439.180471
976.053191
-1264.885258
-199.194529
737.019757
-811.717705
-473.087006
2111.462006
776.858663
-1269.865122
1673.234043
1688.173632
-2370.414894
-164.335486
2355.475304
-383.449468
-84.657675
2250.898176
348.590426
-1414.281155
1419.261018
2026.804331
-388.429331
1444.160334
2843.501900
-59.758359
139.436170
2599.488602
1444.160334
-34.859043
2191.139818
2853.461626
229.073708
1324.643617
3451.045213
771.878799
1543.757599
4362.360182
2350.495441
2778.763678
4287.662234
2793.703267
2126.401596
4212.964286
5931.017097
3968.950988
3729.917553
5746.762158
4451.997720
2773.783815
4302.601824
4516.735942
1673.234043
2355.475304
4257.783055
423.288374
-1688.173632
2046.723784
1728.012538
-562.724544
1483.999240
1807.690350
-1543.757599
-761.919073
2056.683511
-647.382219
-1344.563070
1847.529255
-24.899316
-1648.334726
1090.590046
189.234802
-1299.744301
697.180851
1444.160334
-582.643997
-497.986322
1190.187310
-119.516717
-1090.590046
1892.348024
2016.844605
-2011.864742
-662.321809
1384.401976
-348.590426
-393.409195
1225.046353
-438.227964
-2524.790653
712.120441
1135.408815
-1723.032675
-189.234802
1553.717325
-1553.717325
-1723.032675
1862.468845
-328.670973
-1728.012538
557.744681
-542.805091
-1996.925152
-1155.328267
164.335486
-478.066869
-1917.247340
-308.751520
-463.127280
-1967.045973
-268.912614
149.395897
-1872.428571
-921.274696
916.294833
-1190.187310
-1548.737462
1095.569909
-383.449468
-2016.844605
732.039894
239.033435
-1429.220745
1075.650456
1419.261018
-1399.341565
-1135.408815
677.261398
-841.596884
-2235.958587
-358.550152
204.174392
-2345.515578
-2131.381459
253.973024
-1867.448708
-2743.904635
-268.912614
-1359.502660
-2504.871201
-253.973024
-408.348784
-2644.307371
-1683.193769
-1503.918693
-1942.146657
4058.588526
11682.759119
14202.569909
13256.395897
7245.700988
-1628.415274
-5263.715426
-2056.683511
841.596884
-1180.227584
-1573.636778
841.596884
-1558.697188
-3580.521657
-74.697948
841.596884
-1538.777736
-453.167553
1259.905395
-891.395517
-966.093465
1090.590046
-194.214666
-1618.455547
577.664134
214.134119
-2694.106003
-483.046733
1573.636778
-612.523176
-2290.737082
224.093845
1354.522796
-1160.308131
537.825228
1538.777736
-672.281535
617.503040
1807.690350
-393.409195
-717.100304
1638.375000
1319.663754
-647.382219
1220.066489
1937.166793
-522.885638
1668.254179
3500.843845
717.100304
1284.804711
4606.373480
2699.085866
976.053191
4178.105243
3635.300152
1329.623480
3052.656155
4621.313070
2953.058891
2838.522036
4646.212386
2604.468465
617.503040
2768.803951
2803.662994
-557.744681
597.583587
2484.951748
-552.764818
-2315.636398
-667.301672
-448.187690
-1588.576368
-522.885638
-746.979483
-2549.689970
-1150.348404
-214.134119
-2509.851064
-2106.482143
-308.751520
-1553.717325
-2504.871201
-562.724544
-134.456307
-2669.206687
-2440.132979
-253.973024
-1264.885258
-1623.435410
-199.194529
-1772.831307
-2644.307371
-224.093845
-229.073708
-2738.924772
-1623.435410
89.637538
-1827.609802
-2041.743921
54.778495
-1937.166793
-3231.931231
-373.489742
-672.281535
-2594.508739
-1160.308131
159.355623
-2614.428191
-2609.448328
776.858663
-1414.281155
-3306.629179
-388.429331
-333.650836
-2778.763678
-1274.844985
-209.154255
-2958.038754
-2225.998860
582.643997
-1165.287994
-2773.783815
-507.946049
-453.167553
-3416.186170
-1718.052812
936.214286
-1628.415274
-1887.368161
990.992781
-248.993161
-2465.032295
-468.107143
418.308511
-1573.636778
-662.321809
622.482903
-2131.381459
-3560.602204
-1025.851824
-1085.610182
-2440.132979
-786.818389
-1120.469225
-3117.394377
-2096.522416
-941.194149
-2534.750380
-2768.803951
-961.113602
-1165.287994
-3241.890957
-2863.421353
-2235.958587
-2315.636398
4043.648936
12439.698328
15253.321049
14461.522796
7380.157295
-2823.582447
-5029.661854
-781.838526
-109.556991
-2021.824468
-1907.287614
-1130.428951
-861.516337
-1160.308131
-74.697948
-906.335106
-2674.186550
-672.281535
313.731383
-1518.858283
-1145.368541
-14.939590
-1882.388298
-2031.784195
318.711246
-956.133739
-2445.112842
253.973024
632.442629
-1957.086246
-921.274696
1125.449088
-766.898936
-1409.301292
1170.267857
-24.899316
-1967.045973
707.140578
1035.811550
-1075.650456
159.355623
1384.401976
-224.093845
-313.731383
2146.321049
1170.267857
-393.409195
2156.280775
2624.387918
776.858663
2051.703647
3097.474924
1673.234043
2330.575988
4222.924012
2963.018617
2315.636398
4491.836626
4516.735942
1927.207067
2445.112842
4322.521277
2171.220365
1329.623480
2714.025456
1628.415274
-746.979483
49.798632
1145.368541
-1518.858283
-1060.710866
657.341945
-1424.240881
-2295.716945
-493.006459
-1115.489362
-2340.535714
-258.952888
-463.127280
-3216.991641
-2111.462006
-806.737842
-3381.327128
-2191.139818
253.973024
-1887.368161
-2679.166413
-582.643997
-831.637158
-2913.219985
-1454.120061
159.355623
-1643.354863
-2335.555851
-219.113982
-1215.086626
-3097.474924
-981.033055
-1479.019377
-3296.669453
-1040.791413
587.623860
-2166.240502
-3047.676292
89.637538
-961.113602
-3172.172872
-727.060030
-796.778116
-3117.394377
-1827.609802
-194.214666
-2061.663374
-2679.166413
-597.583587
-1927.207067
-2992.897796
-1324.643617
-2320.616261
-3441.085486
-946.174012
229.073708
-2479.971884
-2235.958587
184.254939
-1857.488982
-2938.119301
-184.254939
-577.664134
-2848.481763
-1235.006079
348.590426
-1658.294453
-1488.979103
283.852204
-1708.093085
-2206.079407
1095.569909
781.838526
-2011.864742
-801.757979
184.254939
-2484.951748
-2375.394757
-9.959726
-1160.308131
-3177.152736
-1195.167173
-383.449468
-3769.756459
-2360.455167
906.335106
-2136.361322
-3162.213146
-532.845365
-2375.394757
-3197.072188
-1135.408815
-3037.716565
-3446.065350
4372.319909
11996.490502
14874.851444
17394.662234
11812.235562
-846.576748
-4242.843465
-831.637158
-552.764818
-1782.791033
-811.717705
732.039894
-1284.804711
-3446.065350
-627.462766
-363.530015
-2420.213526
4.979863
74.697948
-1713.072948
-517.905775
692.200988
-1543.757599
-2036.764058
831.637158
-662.321809
-2355.475304
224.093845
448.187690
-1787.770897
-776.858663
388.429331
-2096.522416
-1180.227584
1708.093085
34.859043
-1479.019377
647.382219
1737.972264
-388.429331
-219.113982
1483.999240
-154.375760
-194.214666
2529.770517
1319.663754
-169.315350
2335.555851
2788.723404
413.328647
1802.710486
3744.857143
1628.415274
1718.052812
5537.607903
3575.541793
582.643997
4596.413754
4999.782675
1882.388298
3909.192629
5014.722264
2081.582827
1922.227204
3172.172872
1902.307751
313.731383
1563.677052
861.516337
-2061.663374
-1090.590046
-124.496581
-1414.281155
-1996.925152
-403.368921
-756.939210
-2141.341185
-229.073708
-348.590426
-2584.549012
-1518.858283
79.677812
-2016.844605
-2644.307371
-756.939210
-1638.375000
-3236.911094
-1374.442249
119.516717
-2335.555851
-2001.905015
209.154255
-2320.616261
-2788.723404
657.341945
-577.664134
-3306.629179
-1040.791413
-44.818769
-2719.005319
-1792.750760
537.825228
-1518.858283
-3122.374240
-941.194149
-1568.656915
-3077.555471
-562.724544
-712.120441
-3764.776596
-1847.529255
373.489742
-2455.072568
-2420.213526
244.013298
-1334.603343
-2644.307371
-1110.509498
-1728.012538
-3112.414514
-1832.589666
-682.241261
-1708.093085
-2499.891337
-956.133739
-1284.804711
-3236.911094
-1005.932371
-298.791793
-2509.851064
-1155.328267
-169.315350
-2211.059271
-1847.529255
408.348784
-637.422492
-2385.354483
617.503040
363.530015
-3470.964666
-443.207827
1314.683891
-1374.442249
-1374.442249
-253.973024
-1558.697188
-3600.441109
-1917.247340
-806.737842
-3142.293693
-1703.113222
-268.912614
-3117.394377
-2539.730243
-617.503040
-2245.918313
-3037.716565
-682.241261
-89.637538
-3724.937690
-4108.387158
-1055.731003
512.925912
6697.916033
16378.770137
19077.856003
11722.598024
1628.415274
-2529.770517
-3575.541793
-1772.831307
826.657295
-2036.764058
-2400.294073
383.449468
-1100.549772
-2310.656535
-119.516717
-94.617401
-2599.488602
-1822.629939
627.462766
-1344.563070
-2026.804331
891.395517
-164.335486
-1807.690350
119.516717
318.711246
-1703.113222
-981.033055
358.550152
-986.012918
-866.496201
1354.522796
398.389058
-1518.858283
-34.859043
826.657295
-383.449468
318.711246
1747.931991
-199.194529
-677.261398
2519.810790
627.462766
-2320.616261
1728.012538
3341.488222
373.489742
1882.388298
4028.709347
961.113602
751.959347
4611.353343
3590.481383
2016.844605
4257.783055
4108.387158
1747.931991
3381.327128
5517.688450
2619.408055
2345.515578
4925.084726
3057.636018
1215.086626
1962.066109
1867.448708
478.066869
473.087006
1279.824848
-263.932751
-1329.623480
219.113982
-642.402356
-2066.643237
-891.395517
-796.778116
-2325.596125
-1274.844985
-278.872340
-1981.985562
-1334.603343
-2539.730243
-3575.541793
-1772.831307
-54.778495
298.791793
-2101.502280
-1459.099924
542.805091
-1469.059650
-2305.676672
-244.013298
-1384.401976
-2494.911474
-94.617401
-582.643997
-2599.488602
-1852.509119
-667.301672
-1160.308131
-2151.300912
-896.375380
-1299.744301
-3625.340426
-687.221125
951.153875
-2221.018997
-1389.381839
239.033435
-2066.643237
-2385.354483
258.952888
-1424.240881
-3958.991261
-239.033435
84.657675
-3610.400836
-1573.636778
-1140.388678
-3241.890957
-1708.093085
154.375760
-831.637158
-2390.334347
-627.462766
-303.771657
-2479.971884
-1533.797872
-144.416033
-1827.609802
-2639.327508
-99.597264
-741.999620
-3530.723024
258.952888
1583.596505
-2629.367781
-761.919073
2026.804331
-781.838526
-1618.455547
697.180851
-557.744681
-1977.005699
-14.939590
-647.382219
-3007.837386
-1643.354863
139.436170
-2026.804331
-2938.119301
-398.389058
-1125.449088
-3207.031915
-1115.489362
-383.449468
-2833.542173
-1892.348024
592.603723
-2375.394757
-3680.118921
-1483.999240
-2126.401596
1812.670213
10791.363602
17359.803191
16876.756459
9048.411474
617.503040
-4337.460866
-3147.273556
493.006459
-463.127280
-1962.066109
488.026596
-333.650836
-3207.031915
-448.187690
1085.610182
-1279.824848
-1269.865122
692.200988
-94.617401
-1827.609802
-512.925912
-44.818769
-1558.697188
-408.348784
453.167553
-1200.147036
-1299.744301
941.194149
333.650836
-2395.314210
572.684271
1907.287614
-2235.958587
-378.469605
2544.710106
-14.939590
-507.946049
1732.992401
941.194149
-990.992781
1005.932371
2141.341185
-189.234802
468.107143
2972.978343
1643.354863
597.583587
3087.515198
3017.797112
926.254559
2719.005319
3939.071809
1523.838146
2290.737082
4910.145137
3480.924392
3296.669453
5502.748860
4531.675532
2848.481763
4551.594985
4730.870061
1658.294453
2126.401596
4028.709347
1294.764438
-642.402356
1374.442249
-9.959726
-1718.052812
816.697568
293.811930
-2370.414894
-1439.180471
632.442629
-766.898936
-1817.650076
-69.718085
-1190.187310
-2873.381079
-423.288374
124.496581
-3291.689590
-1962.066109
926.254559
-2245.918313
-3346.468085
219.113982
-229.073708
-2564.629559
-597.583587
39.838906
-1648.334726
-881.435790
234.053571
-1927.207067
-3112.414514
448.187690
-273.892477
-2793.703267
283.852204
119.516717
-2654.267097
-811.717705
617.503040
-2300.696809
-2818.602584
627.462766
-493.006459
-3062.615881
-189.234802
-84.657675
-3685.098784
-1284.804711
1110.509498
-1414.281155
-2091.542553
-512.925912
-1170.267857
-2674.186550
-184.254939
154.375760
-2758.844225
-846.576748
1060.710866
-1922.227204
-2704.065729
-199.194529
-542.805091
-2021.824468
-876.455927
-512.925912
-2594.508739
-1718.052812
1155.328267
-761.919073
-1235.006079
2629.367781
861.516337
-2146.321049
722.080167
1603.515957
-1244.965805
-244.013298
512.925912
-2659.246960
-1737.972264
746.979483
-1060.710866
-2415.233663
-1434.200608
-1483.999240
-2669.206687
-1718.052812
403.368921
-1050.751140
-1897.327888
383.449468
-1354.522796
-3197.072188
-990.992781
-1424.240881
-3012.817249
3371.367401
12529.335866
15930.582447
16194.515198
9805.350684
-1235.006079
-4476.897036
-512.925912
866.496201
-1683.193769
-1060.710866
1269.865122
-1259.905395
-2121.421733
926.254559
-373.489742
-2489.931611
263.932751
786.818389
-2823.582447
-1598.536094
1568.656915
-1185.207447
-1967.045973
1279.824848
154.375760
-1359.502660
502.966185
662.321809
-801.757979
109.556991
1479.019377
-468.107143
-976.053191
1718.052812
632.442629
-1259.905395
547.784954
891.395517
-602.563450
69.718085
1483.999240
657.341945
746.979483
2748.884498
1439.180471
373.489742
3331.528495
3077.555471
702.160714
2191.139818
3929.112082
2430.173252
1777.811170
4870.306231
4362.360182
1588.576368
3570.561930
4591.433891
3286.709726
4128.306611
4959.943769
2465.032295
1563.677052
4272.722644
2669.206687
-338.630699
1942.146657
2255.878040
-642.402356
-502.966185
348.590426
-1613.475684
-1827.609802
881.435790
-438.227964
-3107.434650
-229.073708
761.919073
-2509.851064
-1648.334726
214.134119
-1573.636778
-2360.455167
-896.375380
-1035.811550
-1817.650076
-403.368921
104.577128
-2146.321049
-1404.321429
547.784954
-1399.341565
-2071.623100
-547.784954
-737.019757
-1996.925152
-1249.945669
-423.288374
-2006.884878
-1528.818009
239.033435
-1369.462386
-2126.401596
69.718085
-463.127280
-2285.757219
-617.503040
-9.959726
-2230.978723
-2270.817629
-622.482903
-1807.690350
-2425.193389
214.134119
-751.959347
-3231.931231
-1190.187310
-229.073708
-2644.307371
-1842.549392
-293.811930
-2176.200228
-2300.696809
84.657675
-951.153875
-2913.219985
-896.375380
-184.254939
-2489.931611
-1932.186930
-19.919453
-1872.428571
-2285.757219
248.993161
-597.583587
-1967.045973
348.590426
1185.207447
-1474.039514
-891.395517
1225.046353
-1115.489362
-1827.609802
428.268237
-1832.589666
-3510.803571
-343.610562
-149.395897
-2893.300532
-1688.173632
-453.167553
-2539.730243
-2360.455167
-746.979483
-2166.240502
-3007.837386
-1334.603343
-1394.361702
-2997.877660
-2275.797492
-1384.401976
-2245.918313
2036.764058
10422.853723
15960.461626
16622.783435
10134.021657
204.174392
-4999.782675
-3216.991641
149.395897
-1493.958967
-2748.884498
-49.798632
-627.462766
-2156.280775
84.657675
393.409195
-2310.656535
-1952.106383
493.006459
-353.570289
-1668.254179
229.073708
-612.523176
-1324.643617
473.087006
-1005.932371
-2554.669833
-622.482903
1464.079787
-323.691109
-1493.958967
995.972644
811.717705
-906.335106
921.274696
756.939210
-1120.469225
423.288374
1160.308131
-796.778116
-522.885638
2270.817629
1439.180471
-408.348784
2031.784195
2380.374620
94.617401
986.012918
2380.374620
1538.777736
1613.475684
3570.561930
3351.447948
1952.106383
3525.743161
4287.662234
2330.575988
3017.797112
5119.299392
3515.783435
2016.844605
4302.601824
3859.393997
1742.952128
2918.199848
2644.307371
383.449468
941.194149
2001.905015
-214.134119
-1259.905395
577.664134
-303.771657
-2305.676672
-597.583587
458.147416
-2380.374620
-2564.629559
-34.859043
-1718.052812
-2265.837766
-199.194529
-2171.220365
-2818.602584
-139.436170
-393.409195
-1857.488982
-926.254559
353.570289
-1220.066489
-2041.743921
29.879179
-278.872340
-2629.367781
-1185.207447
473.087006
-2235.958587
-1742.952128
164.335486
-2300.696809
-2345.515578
54.778495
-1195.167173
-2519.810790
119.516717
438.227964
-2235.958587
-1354.522796
114.536854
-2006.884878
-2649.287234
-338.630699
-682.241261
-2111.462006
-926.254559
-478.066869
-2365.435030
-2255.878040
-54.778495
-1429.220745
-2365.435030
0.000000
-1125.449088
-3465.984802
-662.321809
727.060030
-2704.065729
-2016.844605
1225.046353
-617.503040
-2529.770517
253.973024
607.543313
-1608.495821
448.187690
1110.509498
-1508.898556
-756.939210
1389.381839
-423.288374
-1882.388298
-263.932751
-1200.147036
-3082.535334
-1045.771277
-418.308511
-2783.743541
-1648.334726
268.912614
-1688.173632
-3137.313830
-612.523176
-587.623860
-3406.226444
-856.536474
552.764818
-2848.481763
-2350.495441
-124.496581
1623.435410
7240.721125
15153.723784
16772.179331
8759.579407
-562.724544
-3759.796733
-2908.240122
-2061.663374
-69.718085
174.295213
-1105.529635
363.530015
-134.456307
-2091.542553
159.355623
642.402356
-1942.146657
-268.912614
1658.294453
-717.100304
-1568.656915
841.596884
318.711246
-1698.133359
358.550152
1319.663754
-1772.831307
-916.294833
2076.602964
-278.872340
-2051.703647
901.355243
1498.938830
-592.603723
388.429331
1414.281155
-44.818769
502.966185
1996.925152
368.509878
-239.033435
2514.830927
1872.428571
-298.791793
2355.475304
3132.333967
537.825228
1991.945289
2768.803951
1180.227584
2460.052432
4108.387158
2763.824088
1508.898556
3610.400836
4113.367021
2714.025456
3934.091945
5243.795973
3630.320289
2624.387918
4422.118541
3610.400836
1000.952508
2240.938450
2524.790653
-308.751520
-288.832067
2166.240502
-9.959726
-2479.971884
906.335106
-234.053571
-2539.730243
891.395517
174.295213
-2574.589286
-981.033055
751.959347
-1145.368541
-1792.750760
966.093465
-413.328647
-3152.253419
-448.187690
239.033435
-2818.602584
-1439.180471
851.556611
-1364.482523
-1304.724164
1235.006079
-413.328647
-2400.294073
-483.046733
468.107143
-1409.301292
-781.838526
468.107143
-1752.911854
-2191.139818
756.939210
114.536854
-1897.327888
-174.295213
-607.543313
-2445.112842
-592.603723
1005.932371
-1220.066489
-2071.623100
338.630699
-662.321809
-2813.622720
-398.389058
463.127280
-2320.616261
-1723.032675
59.758359
-1464.079787
-1464.079787
199.194529
-781.838526
-2260.857903
-473.087006
990.992781
-1364.482523
-1170.267857
1404.321429
-353.570289
-1862.468845
697.180851
562.724544
-1732.992401
-134.456307
1200.147036
-1518.858283
-1668.254179
532.845365
-1369.462386
-2992.897796
-1030.831687
-876.455927
-2235.958587
-861.516337
24.899316
-2385.354483
-2614.428191
129.476444
-901.355243
-2340.535714
-1025.851824
-1598.536094
-3097.474924
-363.530015
4830.467325
7390.117021
12290.302432
14879.831307
5457.930091
-3236.911094
-2903.260258
-2056.683511
-2465.032295
-931.234422
-134.456307
-2390.334347
-1752.911854
1190.187310
-483.046733
-1847.529255
423.288374
29.879179
-1384.401976
408.348784
532.845365
-1563.677052
-1483.999240
169.315350
-253.973024
-796.778116
1210.106763
9.959726
-1723.032675
29.879179
44.818769
-1434.200608
-448.187690
1762.871581
54.778495
-911.314970
1598.536094
1105.529635
-737.019757
388.429331
1444.160334
258.952888
219.113982
1095.569909
-174.295213
-24.899316
2903.260258
1359.502660
-99.597264
3241.890957
2883.340805
881.435790
2544.710106
4008.789894
2519.810790
1732.992401
4143.246201
4043.648936
1857.488982
3600.441109
4596.413754
1493.958967
1902.307751
4188.064970
1005.932371
-448.187690
1842.549392
732.039894
-791.798252
438.227964
612.523176
-1264.885258
-1035.811550
388.429331
-1424.240881
-2186.159954
293.811930
-512.925912
-2589.528875
-821.677432
-24.899316
-1807.690350
-2021.824468
-891.395517
-1294.764438
-1628.415274
393.409195
-453.167553
-2818.602584
-497.986322
537.825228
-2225.998860
-2061.663374
194.214666
-1244.965805
-1952.106383
363.530015
-1319.663754
-2992.897796
333.650836
1000.952508
-2201.099544
-1638.375000
428.268237
-1424.240881
-1638.375000
702.160714
-378.469605
-2285.757219
-278.872340
-438.227964
-3276.750000
-1035.811550
557.744681
-2235.958587
-2474.992021
338.630699
-741.999620
-2350.495441
-164.335486
-278.872340
-2051.703647
-1030.831687
756.939210
-1339.583207
-2295.716945
59.758359
-552.764818
-2171.220365
104.577128
876.455927
-1842.549392
-582.643997
1902.307751
-542.805091
-966.093465
1503.918693
-194.214666
-2001.905015
-353.570289
393.409195
-1927.207067
-2196.119681
4.979863
-1538.777736
-3306.629179
-602.563450
-318.711246
-2345.515578
-1005.932371
-791.798252
-2559.649696
-662.321809
453.167553
-2763.824088
-2953.058891
2131.381459
6080.412994
8102.237462
14038.234422
14705.536094
2753.864362
-4317.541413
-1479.019377
-2240.938450
-3809.595365
114.536854
403.368921
-1772.831307
139.436170
846.576748
-1897.327888
-1488.979103
896.375380
-990.992781
-1518.858283
891.395517
278.872340
-1479.019377
-453.167553
129.476444
-1424.240881
-1030.831687
1329.623480
134.456307
-1678.213906
139.436170
124.496581
-1025.851824
936.214286
1180.227584
-1105.529635
263.932751
1917.247340
-478.066869
-1180.227584
1533.797872
1668.254179
-139.436170
1339.583207
2026.804331
109.556991
722.080167
2719.005319
1439.180471
562.724544
3685.098784
3197.072188
936.214286
3500.843845
4302.601824
2285.757219
3192.092325
4631.272796
2908.240122
2559.649696
4890.225684
3789.675912
1787.770897
3132.333967
3690.078647
1543.757599
1215.086626
2101.502280
-677.261398
-1678.213906
1190.187310
801.757979
-1718.052812
-189.234802
637.422492
-2181.180091
-1693.153495
109.556991
-1185.207447
-1822.629939
144.416033
-627.462766
-2315.636398
-692.200988
-1040.791413
-2300.696809
-1185.207447
-174.295213
-1289.784574
-2186.159954
-547.784954
-1379.422112
-3645.259878
-866.496201
702.160714
-2211.059271
-1812.670213
54.778495
-1439.180471
-2091.542553
413.328647
-194.214666
-2360.455167
-1085.610182
-1000.952508
-2758.844225
-1977.005699
184.254939
-1444.160334
-1986.965426
667.301672
-1180.227584
-3261.810410
-567.704407
54.778495
-2390.334347
-1882.388298
-278.872340
-1384.401976
-1792.750760
89.637538
-1399.341565
-3695.058511
-896.375380
-214.134119
-2669.206687
-1075.650456
871.476064
-1977.005699
-3072.575608
99.597264
24.899316
-1747.931991
89.637538
39.838906
-1673.234043
-348.590426
811.717705
-697.180851
-1488.979103
652.362082
283.852204
-2365.435030
-1493.958967
74.697948
-1698.133359
-1817.650076
-318.711246
-1942.146657
-2514.830927
-303.771657
-781.838526
-3192.092325
-1369.462386
-54.778495
-2923.179711
-2579.569149
-169.315350
-2529.770517
-3660.199468
776.858663
5263.715426
8650.022416
14630.838146
17095.870441
6419.043693
-2848.481763
-1613.475684
-2186.159954
-3152.253419
9.959726
-348.590426
-1757.891717
-293.811930
-727.060030
-1673.234043
-871.476064
687.221125
-990.992781
-2255.878040
263.932751
-129.476444
-1792.750760
-463.127280
393.409195
-1389.381839
-1528.818009
-14.939590
-443.207827
-1309.704027
-39.838906
527.865502
-1449.140198
-14.939590
1553.717325
-1284.804711
-846.576748
1434.200608
129.476444
-1205.126900
542.805091
1030.831687
-527.865502
493.006459
1264.885258
-124.496581
1065.690729
2679.166413
368.509878
368.509878
3973.930851
3456.025076
1005.932371
3436.105623
4785.648556
1827.609802
2340.535714
4974.883359
3152.253419
2161.260638
4815.527736
4143.246201
1439.180471
2659.246960
3485.904255
1080.630319
1424.240881
2833.542173
901.355243
-612.523176
1150.348404
886.415653
-2435.153116
-1563.677052
488.026596
-1419.261018
-1548.737462
592.603723
-990.992781
-3226.951368
-1095.569909
-722.080167
-2415.233663
-507.946049
542.805091
-2440.132979
-1419.261018
652.362082
-2987.917933
-3017.797112
358.550152
-727.060030
-2569.609422
-507.946049
383.449468
-3077.555471
-2265.837766
1095.569909
-1792.750760
-2704.065729
-144.416033
-1015.892097
-1220.066489
-204.174392
-692.200988
-2405.273936
-1991.945289
74.697948
-1399.341565
-2554.669833
-4.979863
-1055.731003
-4212.964286
-607.543313
1055.731003
-2494.911474
-1977.005699
483.046733
-1483.999240
-3057.636018
-433.248100
-766.898936
-2828.562310
-1025.851824
-134.456307
-2091.542553
-1568.656915
-1374.442249
-2280.777356
-1613.475684
54.778495
-244.013298
-2728.965046
-612.523176
577.664134
-2798.683131
-1718.052812
1274.844985
-443.207827
-1384.401976
1319.663754
702.160714
-2146.321049
-722.080167
184.254939
-2733.944909
-1932.186930
786.818389
-1558.697188
-2704.065729
-751.959347
-2330.575988
-3356.427812
-253.973024
-54.778495
-2903.260258
-1777.811170
69.718085
-3027.756839
-3177.152736
463.127280
-1558.697188
-4611.353343
-258.952888
6463.862462
9745.592325
15437.575988
17484.299772
5811.500380
-3700.038374
-1399.341565
-966.093465
-2499.891337
-94.617401
-547.784954
-2539.730243
-1200.147036
224.093845
-1857.488982
-2783.743541
-323.691109
-637.422492
-1981.985562
-483.046733
253.973024
-1643.354863
-1513.878419
781.838526
-1145.368541
-3371.367401
-473.087006
179.275076
-1523.838146
-124.496581
756.939210
-1668.254179
-1533.797872
1010.912234
-826.657295
-1732.992401
1424.240881
707.140578
-1279.824848
433.248100
338.630699
-990.992781
-59.758359
1742.952128
1409.301292
174.295213
1454.120061
1937.166793
104.577128
981.033055
2923.179711
1618.455547
2076.602964
4521.715805
2659.246960
1553.717325
4850.386778
4207.984422
1942.146657
3580.521657
4715.930471
2230.978723
1239.985942
3739.877280
2066.643237
-443.207827
1170.267857
408.348784
-1797.730623
313.731383
1100.549772
-1907.287614
-1344.563070
34.859043
-2161.260638
-2440.132979
-239.033435
-702.160714
-2430.173252
-1553.717325
-881.435790
-3107.434650
-2639.327508
-861.516337
-2714.025456
-2599.488602
-368.509878
-1165.287994
-3535.702888
-1882.388298
278.872340
-2370.414894
-2056.683511
-54.778495
-2435.153116
-3162.213146
-79.677812
-602.563450
-3465.984802
-1434.200608
-194.214666
-2798.683131
-2071.623100
-597.583587
-2699.085866
-2415.233663
-353.570289
-697.180851
-2524.790653
-2614.428191
-1454.120061
-2156.280775
-1912.267477
-861.516337
-2036.764058
-2225.998860
-154.375760
-1479.019377
-3709.998100
-1384.401976
-522.885638
-2903.260258
-2733.944909
-722.080167
-1379.422112
-2415.233663
-886.415653
-1708.093085
-3406.226444
-1235.006079
-298.791793
-2918.199848
-2260.857903
-995.972644
-3047.676292
-2126.401596
672.281535
-293.811930
-2250.898176
-368.509878
517.905775
-2300.696809
-1464.079787
1075.650456
-941.194149
-1673.234043
-363.530015
-2255.878040
-3929.112082
-1603.515957
-722.080167
-3411.206307
-2873.381079
-727.060030
-2908.240122
-3874.333587
-1379.422112
-1334.603343
-2763.824088
-1538.777736
-951.153875
-2828.562310
-3067.595745
-2101.502280
-3376.347264
-1349.542933
8391.069529
14307.147036
15666.649696
14192.610182
3998.830167
-4725.890198
-3700.038374
-642.402356
-1757.891717
-2604.468465
-383.449468
-557.744681
-3212.011778
-1986.965426
-99.597264
-1713.072948
-2001.905015
-283.852204
-1175.247720
-2843.501900
-727.060030
-458.147416
-2728.965046
-896.375380
-54.778495
-3670.159195
-2295.716945
1742.952128
-1070.670593
-2111.462006
886.415653
-956.133739
-2614.428191
-343.610562
273.892477
-1757.891717
-1070.670593
1170.267857
-398.389058
-1917.247340
-39.838906
572.684271
-781.838526
1220.066489
1762.871581
-1752.911854
-328.670973
2375.394757
129.476444
-338.630699
2763.824088
2982.938070
1090.590046
2295.716945
3465.984802
1757.891717
2285.757219
4362.360182
1857.488982
971.073328
4531.675532
3142.293693
428.268237
2479.971884
2972.978343
-179.275076
-562.724544
642.402356
-1080.630319
-1812.670213
-507.946049
-1140.388678
-2828.562310
-1464.079787
-1284.804711
-3525.743161
-3032.736702
-1553.717325
-2629.367781
-4183.085106
-1444.160334
-1548.737462
-4531.675532
-2071.623100
-1115.489362
-3714.977964
-2534.750380
-861.516337
-2719.005319
-3366.387538
-1513.878419
-1623.435410
-3739.877280
-2196.119681
-1090.590046
-4437.058131
-3475.944529
-1289.784574
-3824.534954
-3406.226444
-552.764818
-1628.415274
-3665.179331
-2584.549012
-2086.562690
-3949.031535
-3132.333967
-687.221125
-2778.763678
-4496.816489
-1902.307751
-2031.784195
-4765.729103
-3132.333967
-1419.261018
-3864.373860
-3182.132599
-1474.039514
-3729.917553
-4088.467705
-1847.529255
-2285.757219
-3958.991261
-2694.106003
-1832.589666
-3665.179331
-3326.548632
-1867.448708
-3187.112462
-4506.776216
-2738.924772
-2126.401596
-4666.131839
-3087.515198
-806.737842
-2992.897796
-2514.830927
-886.415653
-2923.179711
-3819.555091
-1429.220745
-876.455927
-2808.642857
-1583.596505
-234.053571
-3276.750000
-3341.488222
-816.697568
-2893.300532
-4417.138678
-2151.300912
-2310.656535
-4476.897036
-3017.797112
-2335.555851
-4775.688830
-4377.299772
-2933.139438
-3749.837006
-3884.293313
-2265.837766
-2221.018997
-4750.789514
-5343.393237
-3107.434650
-4526.695669
-1090.590046
9491.619301
13062.181231
14835.012538
12823.147796
174.295213
-6752.694529
-3117.394377
-1469.059650
-3705.018237
-3381.327128
-1359.502660
-2878.360942
-4133.286474
-1394.361702
-1742.952128
-4940.024316
-2948.079027
-741.999620
-2997.877660
-3221.971505
-1230.026216
-2709.045593
-3187.112462
-527.865502
-2156.280775
-4212.964286
-1459.099924
-746.979483
-3555.622340
-2748.884498
-438.227964
-2489.931611
-3490.884119
-976.053191
-881.435790
-2604.468465
-1095.569909
-59.758359
-3012.817249
-2196.119681
931.234422
-766.898936
-1986.965426
263.932751
39.838906
-2624.387918
-234.053571
2101.502280
-283.852204
-39.838906
1389.381839
995.972644
458.147416
1528.818009
2325.596125
602.563450
1986.965426
3724.937690
896.375380
662.321809
3615.380699
2514.830927
-428.268237
1429.220745
1942.146657
-976.053191
-976.053191
-791.798252
-2041.743921
-2111.462006
-502.966185
-1996.925152
-5064.520897
-1698.133359
-502.966185
-4008.789894
-2494.911474
-1558.697188
-4342.440729
-3197.072188
-1563.677052
-4367.340046
-4242.843465
-836.617021
-1459.099924
-4451.997720
-3047.676292
-1025.851824
-3326.548632
-3416.186170
-901.355243
-2430.173252
-4183.085106
-1832.589666
-1777.811170
-3909.192629
-2036.764058
-1150.348404
-4088.467705
-2694.106003
-1060.710866
-3958.991261
-3062.615881
-488.026596
-2111.462006
-3456.025076
-1568.656915
-1454.120061
-4222.924012
-3137.313830
-672.281535
-2529.770517
-3685.098784
-1892.348024
-2091.542553
-3934.091945
-2748.884498
-846.576748
-2768.803951
-4412.158815
-1289.784574
-990.992781
-3147.273556
-936.214286
-1772.831307
-4207.984422
-1947.126520
-1110.509498
-3007.837386
-2474.992021
-1130.428951
-2320.616261
-3012.817249
-1374.442249
-1294.764438
-2460.052432
-413.328647
602.563450
-2325.596125
-2201.099544
94.617401
-1907.287614
-2146.321049
821.677432
-129.476444
-2748.884498
-1548.737462
-712.120441
-3739.877280
-4053.608663
-1230.026216
-1488.979103
-2465.032295
-1588.576368
-2589.528875
-3809.595365
-1703.113222
-1155.328267
-3904.212766
-2863.421353
-732.039894
-2679.166413
-3978.910714
-2798.683131
-273.892477
4437.058131
12265.403116
18923.480243
14894.770897
3809.595365
-1523.838146
-3167.193009
-3072.575608
-278.872340
-966.093465
-3127.354103
-1772.831307
-637.422492
-2126.401596
-1244.965805
378.469605
-2793.703267
-3182.132599
134.456307
-338.630699
-1742.952128
-313.731383
981.033055
-1653.314590
-2549.689970
273.892477
-373.489742
-2151.300912
149.395897
4.979863
-2096.522416
69.718085
493.006459
-1732.992401
-766.898936
1518.858283
-209.154255
-1752.911854
1065.690729
1005.932371
-1035.811550
607.543313
1897.327888
149.395897
19.919453
2390.334347
1319.663754
54.778495
2689.126140
2868.401216
1030.831687
2514.830927
4098.427432
2136.361322
2176.200228
4571.514438
3480.924392
2634.347644
4073.528116
3585.501520
2026.804331
3461.004939
4900.185410
2350.495441
1030.831687
2908.240122
1603.515957
-1264.885258
826.657295
1324.643617
-1304.724164
-124.496581
781.838526
-1772.831307
-2031.784195
119.516717
-1065.690729
-2499.891337
-333.650836
-39.838906
-3690.078647
-2499.891337
737.019757
-2410.253799
-2684.146277
926.254559
-1070.670593
-3291.689590
-283.852204
89.637538
-2320.616261
-971.073328
781.838526
-1070.670593
-2524.790653
-413.328647
-353.570289
-2056.683511
194.214666
-34.859043
-2494.911474
-946.174012
-189.234802
-2245.918313
-1807.690350
29.879179
-692.200988
-1732.992401
-119.516717
-89.637538
-2987.917933
-1259.905395
727.060030
-1847.529255
-1673.234043
622.482903
-761.919073
-3157.233283
-1513.878419
-14.939590
-1703.113222
-697.180851
258.952888
-2544.710106
-2315.636398
507.946049
-268.912614
-1887.368161
-497.986322
-453.167553
-2719.005319
-2325.596125
-104.577128
139.436170
-353.570289
871.476064
-89.637538
-981.033055
1752.911854
956.133739
-1588.576368
119.516717
1483.999240
-617.503040
-1075.650456
-159.355623
-1703.113222
-2245.918313
-214.134119
-308.751520
-2166.240502
-1434.200608
-473.087006
-1568.656915
-1409.301292
388.429331
-692.200988
-2260.857903
-139.436170
114.536854
-3012.817249
-2629.367781
-423.288374
1498.938830
8137.096505
16319.011778
18261.158435
10472.652356
1902.307751
-2011.864742
-3854.414134
-194.214666
1304.724164
-1653.314590
-732.039894
652.362082
-567.704407
-707.140578
692.200988
682.241261
-806.737842
9.959726
951.153875
-692.200988
-403.368921
1518.858283
388.429331
-981.033055
1269.865122
1439.180471
-1190.187310
189.234802
1339.583207
-567.704407
-303.771657
1483.999240
677.261398
-184.254939
2549.689970
1623.435410
-766.898936
1981.985562
2913.219985
732.039894
1075.650456
2813.622720
1772.831307
916.294833
3296.669453
3147.273556
-139.436170
2151.300912
4277.702508
2126.401596
3326.548632
4227.903875
2604.468465
2629.367781
5024.681991
4636.252660
3077.555471
5094.400076
4850.386778
3346.468085
4576.494301
5223.876520
3610.400836
2674.186550
3605.420973
2838.522036
652.362082
1329.623480
2524.790653
343.610562
-836.617021
1025.851824
313.731383
-1553.717325
293.811930
448.187690
-1967.045973
-697.180851
951.153875
-1583.596505
-1513.878419
1493.958967
-288.832067
-1160.308131
697.180851
-846.576748
-2171.220365
-209.154255
1070.670593
-926.254559
-911.314970
1618.455547
-667.301672
-2689.126140
368.509878
627.462766
-1538.777736
-169.315350
1329.623480
-293.811930
-1284.804711
24.899316
-552.764818
-1847.529255
727.060030
751.959347
-1553.717325
-567.704407
363.530015
-1235.006079
-1105.529635
1145.368541
-916.294833
-2056.683511
682.241261
378.469605
-1728.012538
-263.932751
986.012918
-1927.207067
-2415.233663
473.087006
-214.134119
-1304.724164
333.650836
-806.737842
-1887.368161
199.194529
816.697568
-1130.428951
-821.677432
1334.603343
-144.416033
-1479.019377
702.160714
876.455927
-478.066869
1737.972264
2420.213526
-896.375380
-532.845365
1742.952128
-408.348784
-1897.327888
438.227964
149.395897
-2116.441869
-283.852204
169.315350
-2191.139818
-1384.401976
478.066869
-841.596884
-2151.300912
801.757979
453.167553
-2554.669833
-572.684271
54.778495
-2659.246960
-248.993161
7175.982903
11075.215805
14381.844985
15766.246960
6239.768617
-3122.374240
-2021.824468
537.825228
-2156.280775
-2126.401596
2484.951748
483.046733
-2106.482143
1623.435410
1354.522796
-771.878799
841.596884
1125.449088
-781.838526
-4.979863
1862.468845
144.416033
-1225.046353
1354.522796
1802.710486
-941.194149
-114.536854
2186.159954
468.107143
-144.416033
1643.354863
423.288374
-179.275076
2494.911474
2171.220365
-248.993161
1862.468845
3142.293693
368.509878
921.274696
3391.286854
1648.334726
89.637538
2250.898176
2868.401216
1274.844985
2260.857903
3381.327128
2250.898176
1822.629939
4098.427432
3829.514818
1807.690350
5034.641717
5662.104483
2425.193389
4212.964286
6209.889438
3535.702888
3799.635638
6424.023556
3645.259878
1967.045973
5129.259119
4003.810030
657.341945
2639.327508
3520.763298
-443.207827
-547.784954
2315.636398
488.026596
-662.321809
1469.059650
453.167553
-1170.267857
537.825228
-154.375760
-2225.998860
-99.597264
1912.267477
-134.456307
-1563.677052
672.281535
488.026596
-1782.791033
-323.691109
1344.563070
-1205.126900
-1075.650456
1583.596505
-393.409195
-1812.670213
682.241261
1225.046353
-786.818389
114.536854
2051.703647
-1080.630319
-3112.414514
308.751520
552.764818
-776.858663
622.482903
692.200988
-737.019757
49.798632
896.375380
-1389.381839
-1050.751140
1185.207447
-597.583587
-1623.435410
199.194529
-363.530015
-1658.294453
-169.315350
537.825228
-1319.663754
-926.254559
1225.046353
-59.758359
-1698.133359
84.657675
189.234802
-2654.267097
-776.858663
1877.408435
-627.462766
-667.301672
1737.972264
124.496581
-1085.610182
1314.683891
1479.019377
-512.925912
219.113982
1673.234043
124.496581
-502.966185
1623.435410
358.550152
-1862.468845
273.892477
488.026596
-2061.663374
-493.006459
1095.569909
-1698.133359
-1399.341565
1538.777736
-816.697568
-2370.414894
248.993161
-746.979483
-2221.018997
323.691109
-527.865502
-4322.521277
-1882.388298
3495.863982
7385.137158
12076.168313
17479.319909
14879.831307
2888.320669
-2748.884498
-1230.026216
-2091.542553
-697.180851
1708.093085
-348.590426
-2006.884878
373.489742
1379.422112
-741.999620
-119.516717
1090.590046
-268.912614
-124.496581
1339.583207
144.416033
-707.140578
1718.052812
667.301672
-2096.522416
1185.207447
2350.495441
-1215.086626
-244.013298
2554.669833
836.617021
-1279.824848
1065.690729
2026.804331
-229.073708
1354.522796
2833.542173
273.892477
308.751520
2549.689970
896.375380
84.657675
3012.817249
3137.313830
1010.912234
1698.133359
3316.588906
1294.764438
1140.388678
4760.749240
3934.091945
2146.321049
4606.373480
4551.594985
2280.777356
4312.561550
4710.950608
2913.219985
4661.151976
6538.560410
4496.816489
2479.971884
4207.984422
4193.044833
1902.307751
2191.139818
2997.877660
1155.328267
219.113982
1887.368161
463.127280
-702.160714
1603.515957
756.939210
-1329.623480
14.939590
577.664134
-1085.610182
-493.006459
1324.643617
-388.429331
-1981.985562
-99.597264
363.530015
-1220.066489
-562.724544
1020.871960
-612.523176
-1244.965805
727.060030
-283.852204
-1125.449088
1025.851824
323.691109
-1314.683891
-378.469605
662.321809
-418.308511
-627.462766
926.254559
19.919453
-1449.140198
179.275076
632.442629
-1787.770897
64.738222
1444.160334
-1215.086626
-507.946049
746.979483
-637.422492
-1195.167173
293.811930
537.825228
-1633.395137
-816.697568
737.019757
-1309.704027
-756.939210
1279.824848
-697.180851
-1195.167173
876.455927
-59.758359
-1842.549392
-14.939590
1344.563070
-826.657295
-737.019757
1444.160334
119.516717
-1404.321429
702.160714
891.395517
-781.838526
1115.489362
2619.408055
363.530015
-119.516717
1842.549392
1050.751140
-149.395897
851.556611
637.422492
-1772.831307
-1130.428951
1354.522796
-592.603723
-1912.267477
84.657675
-841.596884
-1867.448708
921.274696
741.999620
-1797.730623
-398.389058
1090.590046
-861.516337
-2121.421733
-906.335106
-522.885638
3221.971505
11936.732143
17529.118541
17065.991261
10920.840046
1907.287614
-3097.474924
-1603.515957
1618.455547
746.979483
-901.355243
1613.475684
732.039894
-2554.669833
652.362082
2335.555851
-866.496201
89.637538
1912.267477
-19.919453
-144.416033
1449.140198
1170.267857
-657.341945
313.731383
1613.475684
-577.664134
-229.073708
1942.146657
1000.952508
-318.711246
1912.267477
2151.300912
-348.590426
1618.455547
2908.240122
-224.093845
717.100304
3112.414514
1090.590046
527.865502
2674.186550
2355.475304
44.818769
1548.737462
4093.447568
2086.562690
2086.562690
4466.937310
2544.710106
2046.723784
4895.205547
4765.729103
2903.260258
4297.621960
6219.849164
3954.011398
3769.756459
6677.996581
4636.252660
2823.582447
5442.990502
4865.326368
2455.072568
3505.823708
4905.165274
1882.388298
642.402356
3724.937690
1274.844985
-1454.120061
1598.536094
1369.462386
-781.838526
1230.026216
1538.777736
-1483.999240
-1498.938830
443.207827
-343.610562
-971.073328
1259.905395
1294.764438
-1772.831307
-806.737842
1379.422112
-1070.670593
-1045.771277
1359.502660
-278.872340
-1777.811170
1125.449088
1558.697188
-1503.918693
-169.315350
1329.623480
-1090.590046
-637.422492
1464.079787
-662.321809
-2240.938450
896.375380
1329.623480
-1334.603343
14.939590
1220.066489
-1274.844985
-961.113602
1150.348404
-313.731383
-1513.878419
-258.952888
313.731383
-1449.140198
-811.717705
981.033055
-1090.590046
-1299.744301
707.140578
-846.576748
-2046.723784
393.409195
408.348784
-1698.133359
-64.738222
1239.985942
-707.140578
-1374.442249
-9.959726
-552.764818
-1991.945289
253.973024
1235.006079
-1613.475684
-647.382219
1479.019377
-373.489742
-338.630699
2031.784195
443.207827
-931.234422
1762.871581
1568.656915
-612.523176
662.321809
1005.932371
-1339.583207
-961.113602
408.348784
-1369.462386
-2489.931611
-313.731383
139.436170
-1777.811170
-761.919073
522.885638
-1464.079787
-1673.234043
642.402356
-478.066869
-2315.636398
74.697948
-1020.871960
-4108.387158
1678.213906
10104.142477
13380.892477
18101.802812
17051.051672
3465.984802
-3754.816869
-856.536474
338.630699
-1469.059650
-378.469605
1523.838146
-1210.106763
-1185.207447
1548.737462
-239.033435
-1618.455547
737.019757
428.268237
-1558.697188
363.530015
1304.724164
-990.992781
-527.865502
1528.818009
-94.617401
-1359.502660
448.187690
433.248100
-921.274696
408.348784
1713.072948
-866.496201
-1050.751140
2684.146277
1125.449088
-1723.032675
1658.294453
1742.952128
-791.798252
1723.032675
2345.515578
234.053571
995.972644
1817.650076
1055.731003
1508.898556
3087.515198
2514.830927
-288.832067
1917.247340
5124.279255
3117.394377
2992.897796
4840.427052
3037.716565
2225.998860
4895.205547
5109.339666
3336.508359
4322.521277
5203.957067
3152.253419
2450.092705
3281.729863
1728.012538
727.060030
2280.777356
1797.730623
-144.416033
1065.690729
2086.562690
-756.939210
-1479.019377
497.986322
-44.818769
-1399.341565
-1190.187310
-1608.495821
-1917.247340
-672.281535
69.718085
-931.234422
-1339.583207
438.227964
-308.751520
-2494.911474
-637.422492
239.033435
-1942.146657
-537.825228
816.697568
-1713.072948
-1349.542933
866.496201
-1493.958967
-3057.636018
179.275076
308.751520
-2470.012158
-831.637158
667.301672
-2479.971884
-1867.448708
846.576748
-737.019757
-1344.563070
288.832067
-229.073708
-2285.757219
-1120.469225
-273.892477
-2141.341185
-1683.193769
318.711246
-1299.744301
-3316.588906
-298.791793
248.993161
-2225.998860
-617.503040
413.328647
-1962.066109
-1688.173632
448.187690
-971.073328
-2225.998860
-1055.731003
-1105.529635
-2225.998860
-1125.449088
209.154255
-1120.469225
-1493.958967
-343.610562
-707.140578
-1249.945669
901.355243
1040.791413
-1548.737462
368.509878
1777.811170
-1518.858283
-1025.851824
1314.683891
-682.241261
-1742.952128
29.879179
-413.328647
-2146.321049
-941.194149
-99.597264
-2614.428191
-2554.669833
-263.932751
-582.643997
-1882.388298
-1354.522796
-458.147416
-2275.797492
-1080.630319
746.979483
-2888.320669
-3540.682751
-54.778495
3371.367401
8679.901596
16503.266717
19690.379179
9735.632599
-990.992781
-2026.804331
-1927.207067
-2166.240502
258.952888
-79.677812
-1977.005699
69.718085
373.489742
-1409.301292
-129.476444
1155.328267
-981.033055
-1533.797872
921.274696
-682.241261
-2987.917933
258.952888
1459.099924
-1553.717325
-388.429331
961.113602
-1040.791413
-662.321809
1279.824848
791.798252
-323.691109
1035.811550
1175.247720
-856.536474
-44.818769
1528.818009
-627.462766
-303.771657
2599.488602
871.476064
-239.033435
2036.764058
1503.918693
-229.073708
1279.824848
2748.884498
1469.059650
1762.871581
3431.125760
2216.039134
1703.113222
3590.481383
3650.239742
2415.233663
3470.964666
4178.105243
2380.374620
3371.367401
6085.392857
4252.803191
1822.629939
4237.863602
4536.655395
801.757979
1917.247340
3550.642477
662.321809
109.556991
1588.576368
189.234802
-1469.059650
124.496581
154.375760
-2211.059271
-966.093465
234.053571
-2280.777356
-2101.502280
677.261398
-1095.569909
-2923.179711
-438.227964
-781.838526
-2938.119301
-1165.287994
662.321809
-1235.006079
-2136.361322
124.496581
-383.449468
-2798.683131
-796.778116
69.718085
-2186.159954
-1185.207447
-159.355623
-1757.891717
-1548.737462
831.637158
-776.858663
-3207.031915
-1215.086626
-1125.449088
-1847.529255
-54.778495
786.818389
-1314.683891
-2669.206687
-866.496201
-473.087006
-2654.267097
-1399.341565
14.939590
-2574.589286
-1508.898556
154.375760
-2006.884878
-2649.287234
-1015.892097
-1225.046353
-2838.522036
-901.355243
99.597264
-2320.616261
-1588.576368
9.959726
-1772.831307
-2813.622720
29.879179
-886.415653
-3451.045213
-74.697948
59.758359
-2953.058891
-1419.261018
154.375760
-1483.999240
-1429.220745
1259.905395
-657.341945
-2504.871201
1568.656915
1414.281155
-1742.952128
-632.442629
1060.710866
-672.281535
-2908.240122
-1259.905395
-921.274696
-2659.246960
-846.576748
-54.778495
-2141.341185
-1757.891717
-502.966185
-1922.227204
-2738.924772
-1065.690729
-1259.905395
-2888.320669
-856.536474
-1070.670593
-4581.474164
-2061.663374
4103.407295
8889.055851
15123.844605
19242.191489
10910.880319
-1100.549772
-2564.629559
-826.657295
-1922.227204
-448.187690
1035.811550
-2186.159954
-2499.891337
587.623860
-1110.509498
-2559.649696
288.832067
-179.275076
-2325.596125
219.113982
1220.066489
-1185.207447
-1130.428951
776.858663
423.288374
-1757.891717
-582.643997
851.556611
-1409.301292
-841.596884
1329.623480
-537.825228
-1020.871960
1553.717325
159.355623
-1394.361702
1424.240881
956.133739
-871.476064
1085.610182
2011.864742
-224.093845
-373.489742
1872.428571
1319.663754
453.167553
2489.931611
2465.032295
79.677812
1772.831307
4198.024696
2021.824468
1847.529255
4621.313070
3525.743161
1747.931991
3675.139058
4148.226064
2021.824468
4123.326748
5159.138298
2768.803951
2524.790653
2863.421353
2435.153116
1000.952508
2051.703647
2903.260258
139.436170
19.919453
876.455927
-1190.187310
-1822.629939
468.107143
-253.973024
-2136.361322
-592.603723
-552.764818
-2499.891337
-1703.113222
-398.389058
-2943.099164
-2474.992021
557.744681
-1150.348404
-2081.582827
-34.859043
-99.597264
-2201.099544
-1832.589666
149.395897
-1329.623480
-2101.502280
-303.771657
-881.435790
-2330.575988
-677.261398
239.033435
-2350.495441
-1623.435410
383.449468
-2091.542553
-2280.777356
378.469605
-1349.542933
-2823.582447
-184.254939
293.811930
-2176.200228
-1409.301292
24.899316
-1996.925152
-1947.126520
497.986322
-1374.442249
-3221.971505
-856.536474
-403.368921
-2778.763678
-1235.006079
497.986322
-2853.461626
-2450.092705
258.952888
-1713.072948
-2669.206687
333.650836
189.234802
-2574.589286
-1334.603343
338.630699
-1708.093085
-1723.032675
637.422492
-771.878799
-2310.656535
74.697948
1035.811550
-1464.079787
-1035.811550
1493.958967
-318.711246
-1668.254179
552.764818
29.879179
-2240.938450
-1120.469225
-413.328647
-2460.052432
-1668.254179
144.416033
-1867.448708
-2484.951748
-268.912614
-1180.227584
-2529.770517
-522.885638
-607.543313
-2699.085866
-1225.046353
29.879179
-3426.145897
-4700.990881
-1289.784574
1538.777736
6732.775076
15562.072568
19097.775456
11219.631839
1374.442249
-1618.455547
-3087.515198
-2489.931611
851.556611
-194.214666
-2315.636398
-204.174392
951.153875
-2211.059271
-2285.757219
1105.529635
149.395897
-1389.381839
253.973024
-602.563450
-2808.642857
-89.637538
1259.905395
-1279.824848
-94.617401
1230.026216
-781.838526
-727.060030
1205.126900
214.134119
-1235.006079
24.899316
732.039894
-433.248100
652.362082
2435.153116
154.375760
-727.060030
1329.623480
906.335106
-502.966185
1264.885258
2300.696809
69.718085
1175.247720
3167.193009
1160.308131
1474.039514
3914.172492
2275.797492
1170.267857
4063.568389
4456.977584
1912.267477
3052.656155
5363.312690
3291.689590
2689.126140
5587.406535
4437.058131
1518.858283
4018.749620
4198.024696
702.160714
1902.307751
3605.420973
1319.663754
308.751520
1777.811170
-89.637538
-1573.636778
497.986322
313.731383
-1757.891717
-796.778116
69.718085
-1713.072948
-1304.724164
34.859043
-1434.200608
-2733.944909
-448.187690
4.979863
-2838.522036
-931.234422
1364.482523
-1459.099924
-2016.844605
572.684271
-876.455927
-2539.730243
-298.791793
179.275076
-1434.200608
-931.234422
522.885638
-876.455927
-1384.401976
552.764818
-642.402356
-2514.830927
-418.308511
433.248100
-2574.589286
-1747.931991
1105.529635
-1857.488982
-2953.058891
488.026596
-393.409195
-2509.851064
-239.033435
268.912614
-2141.341185
-1344.563070
24.899316
-1797.730623
-1364.482523
1050.751140
-1424.240881
-3261.810410
-732.039894
-293.811930
-2036.764058
-1075.650456
59.758359
-1872.428571
-1972.025836
607.543313
-507.946049
-2470.012158
179.275076
717.100304
-1588.576368
-687.221125
1449.140198
194.214666
-881.435790
1723.032675
891.395517
-1439.180471
527.865502
278.872340
-2873.381079
-1444.160334
876.455927
-1742.952128
-1991.945289
69.718085
-1573.636778
-2748.884498
-851.556611
-149.395897
-1752.911854
-1155.328267
363.530015
-1459.099924
-1792.750760
199.194529
-2131.381459
-3112.414514
3680.118921
9815.310410
12877.926292
16712.420973
11468.625000
-1055.731003
-4317.541413
-1972.025836
-1922.227204
-1374.442249
522.885638
756.939210
-911.314970
-1120.469225
483.046733
-423.288374
-1249.945669
1409.301292
219.113982
-1912.267477
632.442629
966.093465
-1713.072948
-253.973024
1364.482523
-727.060030
-657.341945
1364.482523
149.395897
-2061.663374
378.469605
1772.831307
-652.362082
373.489742
2290.737082
318.711246
-204.174392
2325.596125
1145.368541
-1155.328267
1588.576368
2699.085866
-64.738222
1010.912234
3580.521657
1045.771277
64.738222
2853.461626
2270.817629
831.637158
2599.488602
3266.790274
1767.851444
3391.286854
4989.822948
3002.857523
2868.401216
5273.675152
4168.145517
2201.099544
4616.333207
5079.460486
1922.227204
2141.341185
3520.763298
1548.737462
1115.489362
2559.649696
722.080167
-926.254559
751.959347
811.717705
-1757.891717
-931.234422
911.314970
-1105.529635
-1513.878419
74.697948
-821.677432
-1977.005699
-1060.710866
-627.462766
-1957.086246
-1528.818009
94.617401
-946.174012
-1454.120061
89.637538
-642.402356
-1797.730623
-34.859043
234.053571
-2355.475304
-1653.314590
791.798252
-981.033055
-2549.689970
69.718085
14.939590
-2559.649696
-194.214666
986.012918
-2335.555851
-1359.502660
642.402356
-1548.737462
-1996.925152
-298.791793
-732.039894
-1847.529255
-647.382219
19.919453
-2216.039134
-1598.536094
976.053191
-1942.146657
-2559.649696
458.147416
-1349.542933
-2420.213526
283.852204
288.832067
-2320.616261
-1493.958967
398.389058
-1872.428571
-3132.333967
-283.852204
39.838906
-2828.562310
-1613.475684
727.060030
-1025.851824
-84.657675
1195.167173
-906.335106
-607.543313
1424.240881
358.550152
-1479.019377
184.254939
-64.738222
-3411.206307
-2455.072568
268.912614
-1304.724164
-2071.623100
348.590426
-1010.912234
-3655.219605
-1090.590046
-398.389058
-2923.179711
-1384.401976
453.167553
-2016.844605
-2783.743541
-976.053191
-1996.925152
-3525.743161
891.395517
6653.097264
9476.679711
14595.979103
13998.395517
2300.696809
-4506.776216
-2738.924772
-1986.965426
-1947.126520
-129.476444
99.597264
-1977.005699
-871.476064
293.811930
-2435.153116
-2315.636398
607.543313
-239.033435
-1882.388298
776.858663
1140.388678
-1708.093085
-717.100304
677.261398
-816.697568
-1464.079787
687.221125
846.576748
-1583.596505
109.556991
1444.160334
-1235.006079
-64.738222
1314.683891
-1668.254179
-951.153875
1742.952128
-19.919453
-1190.187310
981.033055
1449.140198
159.355623
1304.724164
2330.575988
239.033435
-169.315350
2086.562690
1852.509119
219.113982
2499.891337
2888.320669
388.429331
2987.917933
4810.547872
2295.716945
2126.401596
4307.581687
3540.682751
2071.623100
4332.481003
4347.420593
1937.166793
3097.474924
3361.407675
946.174012
746.979483
2260.857903
776.858663
-1005.932371
154.375760
398.389058
-1932.186930
-1010.912234
876.455927
-1977.005699
-2141.341185
368.509878
-1967.045973
-3774.736322
54.778495
263.932751
-2654.267097
-1424.240881
34.859043
-1981.985562
-2554.669833
333.650836
-408.348784
-2893.300532
-687.221125
-99.597264
-2415.233663
-1185.207447
-791.798252
-2275.797492
-1902.307751
-174.295213
-667.301672
-3142.293693
-1289.784574
-159.355623
-1777.811170
-781.838526
-174.295213
-1827.609802
-2201.099544
24.899316
-951.153875
-3600.441109
-926.254559
169.315350
-2479.971884
-1643.354863
-298.791793
-1927.207067
-2604.468465
-1160.308131
-1444.160334
-2778.763678
-821.677432
54.778495
-2534.750380
-2569.609422
-995.972644
-1732.992401
-2639.327508
-986.012918
-229.073708
-1847.529255
-811.717705
-428.268237
-2330.575988
-4.979863
1444.160334
-961.113602
-1075.650456
911.314970
-443.207827
-2838.522036
-378.469605
796.778116
-2529.770517
-1952.106383
-99.597264
-2918.199848
-2813.622720
-303.771657
-1419.261018
-2539.730243
-667.301672
-577.664134
-3301.649316
-2654.267097
-368.509878
-1668.254179
-2385.354483
49.798632
-1603.515957
-5607.325988
-1832.589666
5094.400076
8988.653116
14112.932371
16144.716565
6558.479863
-3724.937690
-2679.166413
-2290.737082
-3700.038374
328.670973
741.999620
-1877.408435
-1020.871960
298.791793
-727.060030
-2898.280395
-2260.857903
-179.275076
-1304.724164
-124.496581
771.878799
-1897.327888
-1055.731003
-14.939590
-2206.079407
-1837.569529
1170.267857
333.650836
-1872.428571
507.946049
1075.650456
-2694.106003
-1344.563070
1628.415274
-861.516337
-1354.522796
1673.234043
493.006459
-1957.086246
-129.476444
1513.878419
-318.711246
-308.751520
2499.891337
995.972644
-443.207827
2489.931611
2265.837766
244.013298
2171.220365
3127.354103
986.012918
1986.965426
4237.863602
2803.662994
971.073328
2245.918313
3545.662614
2714.025456
3983.890578
5388.212006
2604.468465
2290.737082
4183.085106
1195.167173
-453.167553
2425.193389
1259.905395
-1548.737462
517.905775
692.200988
-2385.354483
-1807.690350
-29.879179
-1628.415274
-2026.804331
647.382219
-781.838526
-3212.011778
-761.919073
-732.039894
-3142.293693
-1220.066489
418.308511
-1917.247340
-2141.341185
-512.925912
-1618.455547
-2838.522036
-1210.106763
-657.341945
-2031.784195
-1623.435410
-358.550152
-1200.147036
-2206.079407
-692.200988
-791.798252
-2853.461626
-1000.952508
318.711246
-2096.522416
-1797.730623
-572.684271
-1807.690350
-1897.327888
-388.429331
-1603.515957
-3082.535334
-712.120441
-174.295213
-2728.965046
-1633.395137
-34.859043
-2056.683511
-2499.891337
-239.033435
-737.019757
-3097.474924
-906.335106
-109.556991
-3889.273176
-2091.542553
741.999620
-2699.085866
-2833.542173
463.127280
-727.060030
-2554.669833
-1324.643617
-1249.945669
-3007.837386
-1239.985942
926.254559
-1170.267857
-1772.831307
1185.207447
572.684271
-2036.764058
-59.758359
602.563450
-2076.602964
-1190.187310
806.737842
-2026.804331
-3754.816869
-572.684271
-1319.663754
-3431.125760
-692.200988
114.536854
-2963.018617
-2216.039134
169.315350
-2061.663374
-3077.555471
-776.858663
-1145.368541
-3197.072188
-1658.294453
-1713.072948
-3371.367401
2529.770517
10567.269757
13634.865502
15756.287234
11443.725684
-373.489742
-4377.299772
-1030.831687
-298.791793
-2106.482143
-712.120441
368.509878
-2400.294073
-2136.361322
358.550152
-682.241261
-2270.817629
69.718085
-483.046733
-3147.273556
-1070.670593
1324.643617
-1185.207447
-2166.240502
811.717705
-632.442629
-2972.978343
-383.449468
1264.885258
-831.637158
-1419.261018
483.046733
-667.301672
-1205.126900
1140.388678
-458.147416
-1907.287614
821.677432
1573.636778
-368.509878
94.617401
1195.167173
-582.643997
-468.107143
2146.321049
1483.999240
-323.691109
1608.495821
2997.877660
821.677432
1195.167173
2997.877660
1603.515957
1897.327888
4442.037994
3904.212766
2026.804331
3934.091945
5114.319529
2265.837766
3137.313830
5174.077888
2211.059271
1185.207447
3884.293313
2410.253799
-119.516717
1354.522796
-54.778495
-2036.764058
-104.577128
667.301672
-1160.308131
-1932.186930
-34.859043
-453.167553
-2833.542173
-1045.771277
84.657675
-2977.958207
-2091.542553
169.315350
-1996.925152
-2544.710106
-363.530015
-901.355243
-3112.414514
-1304.724164
204.174392
-3321.568769
-2858.441489
662.321809
-1384.401976
-2992.897796
-74.697948
-741.999620
-4237.863602
-1483.999240
976.053191
-1479.019377
-1344.563070
288.832067
-1887.368161
-3346.468085
-707.140578
-517.905775
-2639.327508
-1165.287994
-278.872340
-2992.897796
-2086.562690
204.174392
-1927.207067
-2474.992021
234.053571
-976.053191
-3804.615502
-1752.911854
-179.275076
-2479.971884
-1663.274316
463.127280
-2380.374620
-2987.917933
-293.811930
-1205.126900
-2624.387918
-990.992781
-682.241261
-2365.435030
-1483.999240
-348.590426
-1867.448708
-1867.448708
-358.550152
-657.341945
-1464.079787
-179.275076
756.939210
-1593.556231
-448.187690
1060.710866
-1981.985562
-1543.757599
682.241261
-662.321809
-2136.361322
-876.455927
-597.583587
-2758.844225
-2554.669833
-433.248100
-1653.314590
-2803.662994
-567.704407
-1200.147036
-3162.213146
-1120.469225
-771.878799
-2987.917933
-1996.925152
-831.637158
-2828.562310
-3904.212766
-189.234802
5039.621581
9655.954787
17051.051672
18993.198328
7305.459347
-2649.287234
-1568.656915
-2255.878040
-2928.159574
1000.952508
-577.664134
-2963.018617
-891.395517
-278.872340
-2136.361322
-1802.710486
468.107143
-1354.522796
-1772.831307
358.550152
-1220.066489
-1947.126520
-24.899316
453.167553
-1493.958967
-746.979483
1528.818009
-1235.006079
-2913.219985
204.174392
617.503040
-1568.656915
348.590426
1175.247720
-1568.656915
-258.952888
1259.905395
-826.657295
-667.301672
2081.582827
901.355243
-1150.348404
1464.079787
2051.703647
-258.952888
667.301672
2644.307371
1459.099924
542.805091
2723.985182
2833.542173
1508.898556
3665.179331
4033.689210
1558.697188
3351.447948
5438.010638
3162.213146
3012.817249
4616.333207
3949.031535
2121.421733
3082.535334
4636.252660
1613.475684
1120.469225
3221.971505
642.402356
-856.536474
771.878799
-29.879179
-1309.704027
-19.919453
592.603723
-1807.690350
-1827.609802
-29.879179
-1603.515957
-2430.173252
-124.496581
-761.919073
-3142.293693
-981.033055
-59.758359
-2684.146277
-1713.072948
144.416033
-1608.495821
-2320.616261
-14.939590
-831.637158
-2554.669833
-69.718085
403.368921
-2016.844605
-1762.871581
-587.623860
-1479.019377
-1991.945289
-293.811930
-119.516717
-2589.528875
-1125.449088
473.087006
-2624.387918
-2230.978723
89.637538
-1319.663754
-1807.690350
-69.718085
-597.583587
-2669.206687
-1503.918693
537.825228
-2385.354483
-3097.474924
-94.617401
-1474.039514
-2524.790653
-458.147416
-737.019757
-2355.475304
-682.241261
-313.731383
-2489.931611
-1852.509119
-119.516717
-1399.341565
-2375.394757
-647.382219
-1698.133359
-3475.944529
-637.422492
1175.247720
-2315.636398
-1812.670213
1732.992401
-1095.569909
-2714.025456
627.462766
662.321809
-1225.046353
169.315350
1025.851824
-1195.167173
-1718.052812
84.657675
-1847.529255
-3580.521657
-831.637158
-502.966185
-2201.099544
-1469.059650
-722.080167
-2340.535714
-2559.649696
-159.355623
-1618.455547
-3595.461246
-746.979483
-652.362082
-2982.938070
-2355.475304
-2425.193389
-3829.514818
1230.026216
10632.007979
14675.656915
16767.199468
13425.711246
1449.140198
-4546.615122
-1488.979103
-497.986322
-2992.897796
-1488.979103
876.455927
-1269.865122
-2340.535714
-34.859043
-258.952888
-2470.012158
-821.677432
64.738222
-1703.113222
-1488.979103
-124.496581
-1055.731003
-1967.045973
119.516717
129.476444
-1369.462386
-547.784954
-184.254939
-1533.797872
-906.335106
1035.811550
-383.449468
-1583.596505
692.200988
483.046733
-1568.656915
737.019757
1135.408815
-1573.636778
179.275076
1922.227204
169.315350
-826.657295
1115.489362
1678.213906
-497.986322
1284.804711
3097.474924
1050.751140
1464.079787
3281.729863
2006.884878
886.415653
3789.675912
4506.776216
2021.824468
3655.219605
4800.588146
2972.978343
3734.897416
4342.440729
2435.153116
1812.670213
3192.092325
2380.374620
428.268237
1000.952508
956.133739
-956.133739
-986.012918
219.113982
-1474.039514
-2240.938450
124.496581
-722.080167
-2918.199848
-1035.811550
179.275076
-2280.777356
-2514.830927
-567.704407
-1842.549392
-2430.173252
-448.187690
-851.556611
-2748.884498
-1962.066109
-642.402356
-1996.925152
-1832.589666
84.657675
-2056.683511
-3396.266717
-333.650836
-592.603723
-2848.481763
-1085.610182
104.577128
-2918.199848
-3221.971505
4.979863
-1055.731003
-2738.924772
-244.013298
-194.214666
-2594.508739
-1633.395137
-567.704407
-2689.126140
-2320.616261
-816.697568
-2211.059271
-2096.522416
-632.442629
-1578.616641
-3172.172872
-1593.556231
-493.006459
-2499.891337
-2285.757219
-408.348784
-1493.958967
-3535.702888
-1678.213906
-398.389058
-2694.106003
-1708.093085
-184.254939
-2290.737082
-2071.623100
-298.791793
-1882.388298
-2709.045593
-522.885638
-1434.200608
-3690.078647
-1035.811550
751.959347
-1518.858283
-1389.381839
1230.026216
-179.275076
-2285.757219
248.993161
179.275076
-2325.596125
-1170.267857
-761.919073
-2514.830927
-1892.348024
-253.973024
-2181.180091
-3560.602204
-951.153875
-1060.710866
-3351.447948
-1513.878419
-876.455927
-3749.837006
-3366.387538
-632.442629
-1200.147036
-2913.219985
-2106.482143
-2783.743541
-1309.704027
7300.479483
14590.999240
16677.561930
13460.570289
3978.910714
-3759.796733
-3167.193009
-866.496201
-2051.703647
-2171.220365
-732.039894
-776.858663
-1887.368161
-1483.999240
-74.697948
-1593.556231
-2121.421733
373.489742
-1065.690729
-2868.401216
79.677812
522.885638
-2559.649696
-1663.274316
796.778116
-1254.925532
-2325.596125
398.389058
149.395897
-2116.441869
-971.073328
502.966185
-657.341945
-1424.240881
368.509878
-89.637538
-1493.958967
1080.630319
493.006459
-1165.287994
796.778116
1269.865122
-483.046733
-562.724544
1732.992401
363.530015
-866.496201
2788.723404
2370.414894
463.127280
2908.240122
3072.575608
816.697568
1683.193769
4506.776216
3291.689590
1299.744301
4486.856763
4765.729103
2026.804331
3575.541793
4003.810030
1877.408435
1872.428571
2803.662994
1110.509498
-806.737842
1369.462386
398.389058
-2609.448328
104.577128
438.227964
-3251.850684
-2659.246960
-34.859043
-1264.885258
-3207.031915
-1005.932371
-353.570289
-3625.340426
-1972.025836
-54.778495
-3212.011778
-2465.032295
-139.436170
-2733.944909
-3580.521657
-617.503040
-1155.328267
-3167.193009
-1045.771277
433.248100
-2101.502280
-2963.018617
14.939590
-1379.422112
-3769.756459
-776.858663
-1329.623480
-3192.092325
-697.180851
-244.013298
-2599.488602
-2235.958587
-174.295213
-1304.724164
-3047.676292
-1005.932371
-941.194149
-3082.535334
-2096.522416
-1210.106763
-2723.985182
-2524.790653
-204.174392
-2315.636398
-3520.763298
-44.818769
-727.060030
-3739.877280
-2021.824468
9.959726
-2350.495441
-2908.240122
69.718085
-1100.549772
-3495.863982
-602.563450
-1080.630319
-3794.655775
-1249.945669
-293.811930
-2958.038754
-2748.884498
59.758359
-1085.610182
-2410.253799
597.583587
-19.919453
-2450.092705
-468.107143
1085.610182
-184.254939
-677.261398
572.684271
-582.643997
-1991.945289
-348.590426
-1065.690729
-3152.253419
-921.274696
0.000000
-2987.917933
-2250.898176
-1055.731003
-2858.441489
-2534.750380
-109.556991
293.811930
-2838.522036
-1757.891717
-19.919453
-2539.730243
-2833.542173
-2171.220365
-1872.428571
2489.931611
10841.162234
16916.595365
16219.414514
7977.740881
-333.650836
-3311.609043
-1942.146657
64.738222
-1040.791413
-2325.596125
-542.805091
-29.879179
-2181.180091
-278.872340
961.113602
-1832.589666
-1110.509498
1309.704027
-836.617021
-2410.253799
727.060030
1025.851824
-1414.281155
383.449468
861.516337
-1802.710486
24.899316
1528.818009
-1150.348404
-1737.972264
1160.308131
1080.630319
-1474.039514
263.932751
1842.549392
-24.899316
-303.771657
1683.193769
1195.167173
-219.113982
1648.334726
1782.791033
-512.925912
976.053191
3027.756839
1518.858283
1603.515957
3291.689590
2544.710106
1563.677052
2445.112842
3117.394377
2245.918313
3057.636018
3804.615502
2813.622720
3988.870441
5298.574468
3381.327128
3032.736702
5567.487082
3963.971125
1075.650456
3261.810410
3655.219605
522.885638
1145.368541
2763.824088
348.590426
-1513.878419
582.643997
204.174392
-2121.421733
-861.516337
746.979483
-1488.979103
-2290.737082
-268.912614
-1304.724164
-1394.361702
-219.113982
-1055.731003
-1991.945289
-781.838526
378.469605
-1568.656915
-1558.697188
458.147416
-617.503040
-1827.609802
-84.657675
-298.791793
-2719.005319
-622.482903
1459.099924
-1269.865122
-1787.770897
134.456307
-418.308511
-1747.931991
-104.577128
184.254939
-3112.414514
-1175.247720
941.194149
-2161.260638
-1409.301292
278.872340
-831.637158
-1708.093085
-244.013298
463.127280
-2056.683511
-707.140578
512.925912
-1668.254179
-1200.147036
144.416033
-961.113602
-1638.375000
-672.281535
-990.992781
-1220.066489
-338.630699
-841.596884
-1822.629939
-901.355243
-159.355623
-1628.415274
-1464.079787
408.348784
677.261398
-891.395517
159.355623
1578.616641
-776.858663
-308.751520
1892.348024
692.200988
-517.905775
522.885638
288.832067
-1618.455547
-836.617021
273.892477
-1807.690350
-1623.435410
552.764818
-632.442629
-2216.039134
-761.919073
-239.033435
-1449.140198
-488.026596
69.718085
-1922.227204
-1329.623480
572.684271
-1822.629939
-3764.776596
-986.012918
3167.193009
7434.935790
14182.650456
18704.366261
10980.598404
-348.590426
-2151.300912
-1907.287614
-2499.891337
507.946049
717.100304
-2116.441869
-1005.932371
1130.428951
-358.550152
-717.100304
1543.757599
353.570289
-1703.113222
572.684271
1563.677052
-1050.751140
-74.697948
1937.166793
-647.382219
-1170.267857
1996.925152
995.972644
-1175.247720
1558.697188
1538.777736
-1762.871581
542.805091
2748.884498
-761.919073
-184.254939
3296.669453
876.455927
-248.993161
2584.549012
1210.106763
-692.200988
2036.764058
2694.106003
667.301672
1239.985942
3271.770137
2808.642857
1483.999240
3022.776976
3446.065350
1215.086626
2853.461626
5039.621581
2674.186550
2743.904635
5507.728723
4377.299772
2076.602964
4686.051292
5248.775836
2783.743541
4481.876900
4427.098404
1628.415274
1902.307751
3296.669453
1459.099924
-24.899316
1996.925152
1105.529635
-1608.495821
229.073708
1284.804711
-1284.804711
-1105.529635
1155.328267
-846.576748
-3077.555471
433.248100
881.435790
-1797.730623
-986.012918
0.000000
-1344.563070
-1414.281155
1165.287994
74.697948
-1817.650076
358.550152
502.966185
-2121.421733
-338.630699
1603.515957
-1553.717325
-1847.529255
1130.428951
-453.167553
-1847.529255
861.516337
483.046733
-2101.502280
-154.375760
662.321809
-1807.690350
-826.657295
1498.938830
-258.952888
-2056.683511
826.657295
283.852204
-2430.173252
-154.375760
268.912614
-2728.965046
-1802.710486
1513.878419
278.872340
-1728.012538
473.087006
562.724544
-1882.388298
-662.321809
592.603723
-1369.462386
-1777.811170
248.993161
-488.026596
-1772.831307
433.248100
951.153875
-1374.442249
-1244.965805
1000.952508
84.657675
-702.160714
2091.542553
1399.341565
-841.596884
1045.771277
990.992781
-1663.274316
-876.455927
572.684271
-1225.046353
-1449.140198
806.737842
-667.301672
-2320.616261
-333.650836
-184.254939
-1822.629939
-921.274696
617.503040
-1474.039514
-2704.065729
338.630699
89.637538
-3187.112462
-1110.509498
3137.313830
6752.694529
13754.382219
16797.078647
7908.022796
-1847.529255
-2221.018997
-1464.079787
-2196.119681
49.798632
637.422492
-1538.777736
-986.012918
1289.784574
-557.744681
-2026.804331
781.838526
139.436170
-1165.287994
816.697568
866.496201
-1165.287994
-493.006459
1483.999240
-597.583587
-737.019757
1483.999240
-338.630699
-1065.690729
1708.093085
1289.784574
-746.979483
622.482903
826.657295
-662.321809
278.872340
2206.079407
1120.469225
-966.093465
990.992781
2325.596125
-746.979483
-139.436170
3401.246581
995.972644
69.718085
3525.743161
2679.166413
916.294833
2484.951748
2773.783815
1737.972264
2738.924772
3854.414134
2674.186550
2579.569149
4785.648556
3286.709726
1952.106383
4481.876900
4138.266337
2489.931611
3859.393997
4526.695669
2285.757219
1334.603343
2051.703647
961.113602
114.536854
1633.395137
1235.006079
-1289.784574
-209.154255
577.664134
-2415.233663
-1822.629939
971.073328
-278.872340
-1787.770897
-662.321809
-9.959726
-1977.005699
-1314.683891
936.214286
-1429.220745
-1822.629939
353.570289
-1045.771277
-2235.958587
39.838906
443.207827
-1444.160334
-502.966185
-24.899316
-1872.428571
-1005.932371
687.221125
-308.751520
-1095.569909
-552.764818
-353.570289
-1419.261018
-1150.348404
572.684271
-642.402356
-1857.488982
-149.395897
-1065.690729
-2465.032295
353.570289
308.751520
-2206.079407
-209.154255
1225.046353
-1723.032675
-2141.341185
751.959347
-517.905775
-2913.219985
74.697948
318.711246
-2753.864362
-2126.401596
79.677812
-423.288374
-2385.354483
-268.912614
-194.214666
-2036.764058
547.784954
771.878799
-1538.777736
-841.596884
627.462766
-567.704407
-1374.442249
712.120441
677.261398
-194.214666
1160.308131
1060.710866
-931.234422
-532.845365
1120.469225
-1329.623480
-2071.623100
507.946049
-408.348784
-2425.193389
-463.127280
766.898936
-2365.435030
-1977.005699
258.952888
-2240.938450
-2006.884878
1090.590046
-642.402356
-2743.904635
-921.274696
-1015.892097
-3266.790274
811.717705
8938.854483
12688.691489
15228.421733
13201.617401
1977.005699
-4471.917173
-1135.408815
49.798632
-2106.482143
-398.389058
1175.247720
-1444.160334
-2206.079407
368.509878
-283.852204
-1693.153495
537.825228
418.308511
-1389.381839
-448.187690
582.643997
-717.100304
-756.939210
1319.663754
124.496581
-1215.086626
453.167553
781.838526
-1414.281155
-184.254939
2659.246960
-89.637538
-1095.569909
1678.213906
791.798252
-1190.187310
-29.879179
846.576748
438.227964
1479.019377
2360.455167
916.294833
298.791793
1802.710486
1394.361702
-34.859043
1991.945289
3585.501520
1429.220745
2001.905015
4666.131839
2873.381079
1996.925152
4227.903875
3157.233283
2410.253799
4188.064970
4063.568389
2579.569149
4023.729483
5134.238982
2509.851064
2265.837766
4153.205927
3187.112462
826.657295
1528.818009
2011.864742
-174.295213
418.308511
1364.482523
-971.073328
-1543.757599
-39.838906
-806.737842
-1897.327888
-39.838906
273.892477
-2813.622720
-2380.374620
244.013298
-1279.824848
-2166.240502
49.798632
-587.623860
-2345.515578
74.697948
398.389058
-2624.387918
-1673.234043
-14.939590
-1424.240881
-1802.710486
-134.456307
-582.643997
-2320.616261
-741.999620
657.341945
-1927.207067
-1832.589666
552.764818
-1050.751140
-2335.555851
124.496581
-229.073708
-2768.803951
-1274.844985
-388.429331
-1693.153495
-816.697568
-59.758359
-1742.952128
-1986.965426
-682.241261
-1005.932371
-1688.173632
-732.039894
189.234802
-1817.650076
-2196.119681
179.275076
-1115.489362
-2484.951748
-687.221125
-751.959347
-2076.602964
-1010.912234
-263.932751
-1757.891717
-1877.408435
-652.362082
-1518.858283
-2016.844605
298.791793
-244.013298
-1937.166793
607.543313
1195.167173
-1568.656915
-378.469605
1598.536094
-722.080167
-1469.059650
946.174012
318.711246
-1872.428571
-1050.751140
-851.556611
-2400.294073
-1618.455547
343.610562
-1469.059650
-2828.562310
169.315350
-846.576748
-4093.447568
-1523.838146
-149.395897
-2335.555851
-995.972644
478.066869
-1986.965426
-3575.541793
-1040.791413
2554.669833
7668.989362
15532.193389
18221.319529
9775.471505
-69.718085
-1812.670213
-2146.321049
-2265.837766
567.704407
-936.214286
-2559.649696
219.113982
-458.147416
-2539.730243
-552.764818
1349.542933
-677.261398
-1892.348024
149.395897
-129.476444
-1962.066109
-318.711246
976.053191
-1822.629939
-2146.321049
542.805091
-219.113982
-971.073328
981.033055
-94.617401
-2265.837766
1200.147036
1658.294453
-2036.764058
44.818769
2250.898176
-74.697948
-1095.569909
667.301672
836.617021
-398.389058
1000.952508
1588.576368
-547.784954
497.986322
2699.085866
1678.213906
1050.751140
3037.716565
3356.427812
966.093465
1359.502660
3565.582067
2679.166413
2644.307371
4681.071429
3665.179331
3067.595745
4885.245821
3909.192629
2549.689970
4267.742781
3954.011398
1135.408815
1359.502660
2569.609422
791.798252
-911.314970
1394.361702
502.966185
-3490.884119
-692.200988
677.261398
-2101.502280
-1120.469225
268.912614
-1528.818009
-2395.314210
-358.550152
-1000.952508
-2918.199848
-766.898936
323.691109
-2166.240502
-2280.777356
-741.999620
-1917.247340
-2788.723404
-806.737842
-791.798252
-2455.072568
-438.227964
557.744681
-1977.005699
-2081.582827
-323.691109
-1384.401976
-1942.146657
89.637538
-781.838526
-2838.522036
-1359.502660
-876.455927
-2315.636398
-911.314970
-209.154255
-1847.529255
-2216.039134
-398.389058
89.637538
-2823.582447
-1942.146657
428.268237
-2176.200228
-2086.562690
358.550152
-2275.797492
-3007.837386
-333.650836
-1414.281155
-2694.106003
-1050.751140
-577.664134
-2445.112842
-1673.234043
224.093845
-1339.583207
-2001.905015
-34.859043
-866.496201
-2728.965046
-881.435790
-353.570289
-2479.971884
-2474.992021
-99.597264
-114.536854
-1434.200608
468.107143
488.026596
-1917.247340
-438.227964
841.596884
-936.214286
-139.436170
567.704407
-1085.610182
-1110.509498
-184.254939
-1603.515957
-3182.132599
-776.858663
174.295213
-2704.065729
-1852.509119
194.214666
-1767.851444
-2733.944909
-751.959347
-1090.590046
-3107.434650
-1160.308131
-79.677812
-2903.260258
-2619.408055
-1737.972264
-2300.696809
3162.213146
12170.785714
16757.239742
16373.790274
10109.122340
582.643997
-3949.031535
-2479.971884
896.375380
-393.409195
-3346.468085
139.436170
363.530015
-3162.213146
-159.355623
1010.912234
-1942.146657
-786.818389
532.845365
-2315.636398
-1772.831307
861.516337
-248.993161
-1165.287994
-244.013298
861.516337
-886.415653
-2554.669833
134.456307
497.986322
-1230.026216
761.919073
995.972644
-1095.569909
134.456307
981.033055
-851.556611
-438.227964
1902.307751
846.576748
-308.751520
1747.931991
1498.938830
-433.248100
567.704407
1772.831307
109.556991
1190.187310
3963.971125
2275.797492
1409.301292
3286.709726
2440.132979
1414.281155
3610.400836
5109.339666
3117.394377
2684.146277
4676.091565
3167.193009
3157.233283
5537.607903
3007.837386
831.637158
3092.495061
3515.783435
697.180851
134.456307
2041.743921
84.657675
-1319.663754
1429.220745
-373.489742
-2465.032295
-29.879179
-278.872340
-2260.857903
-1648.334726
413.328647
-1135.408815
-3241.890957
-438.227964
-69.718085
-2828.562310
-1474.039514
-248.993161
-2723.985182
-1952.106383
1035.811550
-995.972644
-2604.468465
79.677812
-493.006459
-2579.569149
-1294.764438
-602.563450
-1957.086246
-1299.744301
712.120441
-1957.086246
-3814.575228
537.825228
248.993161
-3734.897416
-801.757979
1200.147036
-2250.898176
-1628.415274
463.127280
-1723.032675
-1986.965426
-717.100304
-1558.697188
-2255.878040
-1160.308131
-214.134119
-2196.119681
-1837.569529
363.530015
-1623.435410
-2843.501900
-84.657675
-722.080167
-3406.226444
-1160.308131
0.000000
-2166.240502
-2061.663374
29.879179
-861.516337
-2559.649696
-542.805091
-273.892477
-1991.945289
-801.757979
244.013298
-1568.656915
-1737.972264
438.227964
-1284.804711
-1827.609802
1663.274316
-4.979863
-1892.348024
622.482903
871.476064
-1180.227584
-1000.952508
1000.952508
-348.590426
-2031.784195
-313.731383
-936.214286
-3062.615881
-1459.099924
-293.811930
-2440.132979
-2166.240502
-204.174392
-1862.468845
-3197.072188
-1140.388678
-308.751520
-1902.307751
-1837.569529
-891.395517
-3665.179331
-3988.870441
4486.856763
11553.282675
15352.918313
19013.117781
11144.933891
-1434.200608
-3221.971505
-727.060030
-1533.797872
-1404.321429
687.221125
-443.207827
-2026.804331
79.677812
-44.818769
-2375.394757
-443.207827
378.469605
-1847.529255
-851.556611
931.234422
-652.362082
-2245.918313
-288.832067
139.436170
-1235.006079
-124.496581
527.865502
-781.838526
-911.314970
1120.469225
114.536854
-1299.744301
1394.361702
1025.851824
-1633.395137
567.704407
2265.837766
-1055.731003
-1070.670593
2230.978723
831.637158
-483.046733
1752.911854
1767.851444
-24.899316
2151.300912
3834.494681
966.093465
1334.603343
3675.139058
2206.079407
1264.885258
3924.132219
4855.366641
2440.132979
2858.441489
4377.299772
3102.454787
3690.078647
5871.258739
3804.615502
2400.294073
4586.454027
3261.810410
831.637158
1837.569529
2763.824088
263.932751
-786.818389
1623.435410
-109.556991
-2216.039134
-4.979863
-129.476444
-2529.770517
-1175.247720
751.959347
-1698.133359
-2390.334347
-44.818769
-1050.751140
-1892.348024
139.436170
-303.771657
-3610.400836
-2300.696809
1429.220745
-1653.314590
-2758.844225
448.187690
-1095.569909
-2679.166413
-94.617401
527.865502
-2211.059271
-911.314970
473.087006
-2967.998480
-2390.334347
293.811930
-946.174012
-2176.200228
-771.878799
263.932751
-2250.898176
-1518.858283
647.382219
-2106.482143
-2151.300912
856.536474
-1439.180471
-3216.991641
-149.395897
-1065.690729
-3112.414514
-806.737842
383.449468
-2375.394757
-1718.052812
876.455927
-1757.891717
-2823.582447
-293.811930
-1010.912234
-2753.864362
-1010.912234
-204.174392
-2121.421733
-1269.865122
94.617401
-2390.334347
-2216.039134
567.704407
-1185.207447
-2649.287234
-791.798252
219.113982
-1195.167173
-1543.757599
1160.308131
473.087006
-1130.428951
911.314970
1254.925532
-1075.650456
-1000.952508
732.039894
-572.684271
-1259.905395
-318.711246
-1130.428951
-1683.193769
-956.133739
-1244.965805
-3162.213146
-1747.931991
592.603723
-1752.911854
-2216.039134
-49.798632
-1857.488982
-3665.179331
-488.026596
368.509878
-3336.508359
-3271.770137
-1464.079787
-94.617401
6379.204787
15178.623100
19102.755319
14267.308131
4631.272796
-1962.066109
-3844.454407
-627.462766
1145.368541
-2186.159954
-1728.012538
612.523176
-2096.522416
-2853.461626
413.328647
-19.919453
-1469.059650
-134.456307
771.878799
-995.972644
-1060.710866
1015.892097
-448.187690
-1822.629939
458.147416
796.778116
-1239.985942
-323.691109
876.455927
-667.301672
-791.798252
1150.348404
642.402356
-1877.408435
104.577128
1503.918693
-786.818389
687.221125
2076.602964
-9.959726
74.697948
2295.716945
1180.227584
-602.563450
1249.945669
2624.387918
871.476064
1792.750760
3406.226444
572.684271
1180.227584
4292.642097
2584.549012
1663.274316
4178.105243
4681.071429
2455.072568
3321.568769
5846.359422
3241.890957
2689.126140
5353.352964
3291.689590
1080.630319
2823.582447
3182.132599
692.200988
-532.845365
458.147416
493.006459
-383.449468
378.469605
-433.248100
-1812.670213
-134.456307
-49.798632
-2763.824088
-2305.676672
4.979863
-1344.563070
-1972.025836
-204.174392
-1244.965805
-2579.569149
-1075.650456
-677.261398
-2704.065729
-1528.818009
552.764818
-1732.992401
-2245.918313
-54.778495
-911.314970
-2534.750380
-801.757979
-413.328647
-2684.146277
-1200.147036
423.288374
-1613.475684
-2380.374620
-383.449468
-642.402356
-2544.710106
-791.798252
34.859043
-2719.005319
-2524.790653
-682.241261
-2096.522416
-2509.851064
-413.328647
-562.724544
-2235.958587
-1165.287994
-642.402356
-2589.528875
-1897.327888
-453.167553
-2011.864742
-2519.810790
-343.610562
-1259.905395
-3346.468085
-1125.449088
-353.570289
-2559.649696
-1822.629939
-199.194529
-2808.642857
-3261.810410
-44.818769
-1299.744301
-3226.951368
-861.516337
-34.859043
-2375.394757
-1279.824848
368.509878
-1837.569529
-1792.750760
702.160714
4.979863
-1902.307751
134.456307
831.637158
-1792.750760
-318.711246
786.818389
-1479.019377
-1434.200608
-632.442629
-2076.602964
-2778.763678
-727.060030
-373.489742
-2330.575988
-2026.804331
-1264.885258
-2798.683131
-2584.549012
-184.254939
-1175.247720
-2400.294073
-861.516337
-1942.146657
-3700.038374
-2808.642857
-1633.395137
-497.986322
5288.614742
14207.549772
17215.387158
11961.631459
4118.346884
-1598.536094
-3859.393997
-1439.180471
378.469605
-1374.442249
-1334.603343
-343.610562
-2061.663374
-2793.703267
4.979863
612.523176
-2494.911474
-1996.925152
1035.811550
-1160.308131
-2016.844605
1140.388678
-199.194529
-1772.831307
179.275076
283.852204
-2355.475304
-1329.623480
1299.744301
-906.335106
-1215.086626
1374.442249
-527.865502
-2445.112842
552.764818
1583.596505
-657.341945
443.207827
2191.139818
-453.167553
-1170.267857
1678.213906
1030.831687
-527.865502
1887.368161
2654.267097
139.436170
1130.428951
3142.293693
1319.663754
1145.368541
4277.702508
3231.931231
587.623860
3406.226444
4183.085106
1937.166793
3759.796733
5522.668313
2898.280395
1762.871581
4083.487842
3381.327128
1777.811170
3451.045213
3401.246581
-39.838906
54.778495
1613.475684
-746.979483
-1095.569909
806.737842
-468.107143
-1972.025836
-537.825228
-438.227964
-2684.146277
-2161.260638
74.697948
-2056.683511
-2918.199848
423.288374
-901.355243
-2858.441489
-9.959726
398.389058
-2206.079407
-1434.200608
-333.650836
-2609.448328
-2245.918313
727.060030
-378.469605
-2460.052432
-139.436170
-179.275076
-3137.313830
-1648.334726
-393.409195
-1728.012538
-1683.193769
-552.764818
-936.214286
-1568.656915
-363.530015
-79.677812
-1912.267477
-2121.421733
99.597264
-1080.630319
-2933.139438
-398.389058
-403.368921
-2549.689970
-627.462766
-258.952888
-2669.206687
-1832.589666
-114.536854
-1588.576368
-2579.569149
-602.563450
-836.617021
-1827.609802
-1334.603343
-1747.931991
-1757.891717
-318.711246
642.402356
-1747.931991
-2305.676672
69.718085
-1289.784574
-2868.401216
-358.550152
488.026596
-1518.858283
-926.254559
333.650836
-1140.388678
-956.133739
1379.422112
602.563450
-936.214286
273.892477
871.476064
-1533.797872
-1732.992401
199.194529
-2654.267097
-3675.139058
-209.154255
-572.684271
-2639.327508
-1095.569909
-577.664134
-3087.515198
-1952.106383
283.852204
-1469.059650
-2171.220365
-44.818769
-776.858663
-3356.427812
-2753.864362
-682.241261
2982.938070
8391.069529
15611.871201
16408.649316
4437.058131
-2355.475304
-2116.441869
-3844.454407
-1244.965805
627.462766
-1862.468845
-1434.200608
149.395897
-861.516337
-1424.240881
717.100304
94.617401
-2982.938070
-478.066869
831.637158
-2644.307371
-1508.898556
702.160714
-916.294833
-1130.428951
891.395517
657.341945
-1847.529255
-672.281535
1205.126900
-1588.576368
-1045.771277
1827.609802
-313.731383
-1055.731003
1603.515957
697.180851
-1254.925532
577.664134
2021.824468
54.778495
-622.482903
1269.865122
746.979483
-94.617401
2345.515578
2340.535714
-308.751520
1757.891717
4053.608663
1200.147036
662.321809
3605.420973
2918.199848
1648.334726
3988.870441
4093.447568
2400.294073
4357.380319
4337.460866
990.992781
1583.596505
4168.145517
2958.038754
861.516337
2823.582447
2664.226824
-89.637538
1235.006079
1145.368541
-1419.261018
-617.503040
796.778116
-1429.220745
-2255.878040
-348.590426
-1254.925532
-2460.052432
-1434.200608
-263.932751
-2176.200228
-2450.092705
338.630699
-2021.824468
-3421.166033
283.852204
-39.838906
-2380.374620
-587.623860
358.550152
-1932.186930
-1568.656915
537.825228
-1573.636778
-2803.662994
119.516717
-522.885638
-2848.481763
-657.341945
-219.113982
-3012.817249
-1967.045973
403.368921
-1135.408815
-2151.300912
-44.818769
-263.932751
-2664.226824
-1185.207447
493.006459
-2001.905015
-2225.998860
4.979863
-1822.629939
-3216.991641
-283.852204
-627.462766
-2584.549012
-1080.630319
-263.932751
-2405.273936
-2773.783815
124.496581
-781.838526
-2494.911474
-134.456307
-483.046733
-2694.106003
-1294.764438
-682.241261
-3112.414514
-2071.623100
836.617021
-1703.113222
-2445.112842
941.194149
-104.577128
-2405.273936
199.194529
1483.999240
-1917.247340
-1040.791413
1404.321429
-632.442629
-1005.932371
94.617401
-1822.629939
-3411.206307
-1030.831687
-258.952888
-2380.374620
-1568.656915
-582.643997
-2549.689970
-3381.327128
-727.060030
-438.227964
-2599.488602
-1479.019377
-851.556611
-2594.508739
-2584.549012
-1713.072948
-2609.448328
-741.999620
6807.473024
11493.524316
13231.496581
12658.812310
3152.253419
-5662.104483
-4227.903875
24.899316
-1344.563070
-2878.360942
49.798632
-229.073708
-2230.978723
-214.134119
244.013298
-2599.488602
-2405.273936
-303.771657
-537.825228
-1130.428951
552.764818
468.107143
-2395.314210
-1025.851824
522.885638
-2056.683511
-1190.187310
1100.549772
-1030.831687
-1927.207067
258.952888
4.979863
-1523.838146
338.630699
1379.422112
-926.254559
-278.872340
976.053191
-801.757979
-388.429331
1633.395137
741.999620
-717.100304
921.274696
1967.045973
-189.234802
348.590426
2723.985182
1309.704027
473.087006
3017.797112
2808.642857
612.523176
2858.441489
3884.293313
1568.656915
2474.992021
3695.058511
2360.455167
2270.817629
4327.501140
3515.783435
1474.039514
2594.508739
3331.528495
1304.724164
308.751520
1488.979103
-164.335486
-1668.254179
353.570289
-423.288374
-2240.938450
-219.113982
-632.442629
-2987.917933
-1683.193769
-537.825228
-1962.066109
-2395.314210
-323.691109
-517.905775
-3152.253419
-1767.851444
-194.214666
-2310.656535
-2046.723784
24.899316
-1235.006079
-3470.964666
-1354.522796
239.033435
-2544.710106
-1787.770897
866.496201
-2186.159954
-3167.193009
149.395897
-791.798252
-2280.777356
-278.872340
-224.093845
-2778.763678
-1947.126520
-84.657675
-2116.441869
-2470.012158
-99.597264
-1653.314590
-4038.669073
-1050.751140
-288.832067
-3500.843845
-1319.663754
667.301672
-2634.347644
-2579.569149
104.577128
-1638.375000
-2828.562310
-333.650836
-398.389058
-2858.441489
-2450.092705
-473.087006
-1991.945289
-3306.629179
-408.348784
-1329.623480
-3256.830547
-358.550152
-781.838526
-3112.414514
-1005.932371
119.516717
-1618.455547
-1379.422112
-89.637538
-1200.147036
-1678.213906
1235.006079
946.174012
-1369.462386
-124.496581
333.650836
-1772.831307
-1747.931991
-562.724544
-2196.119681
-2300.696809
-831.637158
-1688.173632
-2659.246960
-1688.173632
-1060.710866
-2460.052432
-2315.636398
-552.764818
-1628.415274
-2848.481763
-552.764818
-567.704407
-2972.978343
-2385.354483
-846.576748
-3530.723024
129.476444
11787.336246
15661.669833
14536.220745
9626.075608
-258.952888
-5682.023936
-3027.756839
79.677812
-1488.979103
-1464.079787
552.764818
-841.596884
-2330.575988
-512.925912
-443.207827
-2694.106003
-1767.851444
288.832067
-1434.200608
-1762.871581
796.778116
-951.153875
-2778.763678
368.509878
488.026596
-2051.703647
-647.382219
856.536474
-1732.992401
-1932.186930
1269.865122
-483.046733
-2285.757219
517.905775
488.026596
-1947.126520
9.959726
1608.495821
-433.248100
-488.026596
1254.925532
697.180851
-448.187690
1493.958967
1882.388298
-458.147416
403.368921
2549.689970
1912.267477
1035.811550
2529.770517
2489.931611
612.523176
2943.099164
4053.608663
1867.448708
3202.052052
4750.789514
2773.783815
1638.375000
3724.937690
3615.380699
2026.804331
3017.797112
2828.562310
-483.046733
-248.993161
2330.575988
-298.791793
-1658.294453
468.107143
-1090.590046
-2967.998480
-139.436170
209.154255
-2624.387918
-1498.938830
-253.973024
-2176.200228
-2221.018997
-438.227964
-1947.126520
-2982.938070
-627.462766
-662.321809
-3456.025076
-2649.287234
-463.127280
-2395.314210
-2091.542553
572.684271
-1225.046353
-3117.394377
-876.455927
-393.409195
-2285.757219
-1220.066489
-4.979863
-1947.126520
-2250.898176
-323.691109
-1304.724164
-3007.837386
-308.751520
-34.859043
-4945.004179
-2933.139438
896.375380
-1598.536094
-2614.428191
-194.214666
-861.516337
-2828.562310
-771.878799
-1130.428951
-3047.676292
-1344.563070
-383.449468
-2106.482143
-2400.294073
-806.737842
-1812.670213
-2758.844225
-951.153875
-801.757979
-2863.421353
-1732.992401
49.798632
-2260.857903
-2365.435030
-278.872340
-831.637158
-2320.616261
-1115.489362
-353.570289
-1737.972264
-732.039894
443.207827
-741.999620
-1105.529635
263.932751
64.738222
-1533.797872
-856.536474
29.879179
-1533.797872
-811.717705
388.429331
-2091.542553
-2136.361322
144.416033
-901.355243
-3007.837386
-2216.039134
-926.254559
-1857.488982
-1792.750760
-851.556611
-2659.246960
-3077.555471
-248.993161
-1110.509498
-3480.924392
-2280.777356
-1882.388298
-1693.153495
5104.359802
13719.523176
16607.843845
15661.669833
8117.177052
-1747.931991
-4212.964286
-1932.186930
-577.664134
-2335.555851
-786.818389
1548.737462
-2240.938450
-3152.253419
562.724544
-59.758359
-2699.085866
-273.892477
637.422492
-2385.354483
-1030.831687
727.060030
-1230.026216
-1563.677052
-14.939590
-194.214666
-1379.422112
129.476444
806.737842
-1523.838146
-662.321809
1045.771277
-956.133739
-1075.650456
1742.952128
751.959347
-1872.428571
-79.677812
1254.925532
-896.375380
537.825228
2071.623100
-129.476444
308.751520
2654.267097
1952.106383
652.362082
2151.300912
1867.448708
682.241261
2415.233663
3655.219605
1962.066109
2096.522416
4173.125380
3789.675912
2186.159954
3605.420973
5398.171733
2818.602584
3336.508359
5472.869681
2375.394757
1439.180471
3993.850304
2455.072568
-149.395897
1578.616641
2280.777356
-1205.126900
-1339.583207
-333.650836
-1847.529255
-866.496201
692.200988
-502.966185
-2420.213526
-866.496201
-333.650836
-2818.602584
-1055.731003
1005.932371
-2201.099544
-2888.320669
19.919453
-1414.281155
-3446.065350
-179.275076
497.986322
-2709.045593
-1140.388678
866.496201
-2579.569149
-3062.615881
632.442629
-856.536474
-3052.656155
-159.355623
-303.771657
-2674.186550
-801.757979
-74.697948
-2694.106003
-2230.978723
652.362082
-497.986322
-2504.871201
-811.717705
164.335486
-2156.280775
-2186.159954
-104.577128
-1872.428571
-2783.743541
-343.610562
-1279.824848
-3147.273556
-229.073708
532.845365
-3416.186170
-2435.153116
572.684271
-1394.361702
-2514.830927
-517.905775
-1379.422112
-3032.736702
-478.066869
-149.395897
-2813.622720
-1543.757599
642.402356
-1807.690350
-2684.146277
-552.764818
-1279.824848
-1683.193769
652.362082
866.496201
-1663.274316
-592.603723
124.496581
-2245.918313
-751.959347
1558.697188
-224.093845
-1424.240881
632.442629
169.315350
-2629.367781
-1887.368161
-159.355623
-2141.341185
-3226.951368
-403.368921
-881.435790
-3670.159195
-1683.193769
-627.462766
-2908.240122
-2161.260638
-751.959347
-2076.602964
-2355.475304
-522.885638
-2265.837766
-4810.547872
1698.133359
10029.444529
13017.362462
17364.783055
15014.287614
1583.596505
-4631.272796
-811.717705
-697.180851
-3336.508359
-1225.046353
4.979863
-2330.575988
-1085.610182
692.200988
-1289.784574
-1434.200608
-512.925912
-1483.999240
-1927.207067
-831.637158
174.295213
-1947.126520
-1334.603343
1130.428951
-1254.925532
-1553.717325
712.120441
-348.590426
-2569.609422
-1543.757599
662.321809
-801.757979
-871.476064
1105.529635
-348.590426
-1299.744301
-134.456307
-244.013298
-751.959347
1135.408815
1404.321429
-1493.958967
59.758359
2723.985182
-313.731383
-1304.724164
2310.656535
2181.180091
14.939590
2315.636398
3675.139058
1030.831687
1235.006079
3555.622340
2479.971884
1857.488982
4546.615122
3919.152356
1563.677052
3520.763298
4108.387158
2310.656535
3057.636018
3809.595365
1832.589666
-89.637538
1334.603343
1140.388678
-1354.522796
194.214666
627.462766
-2066.643237
-1090.590046
403.368921
-2290.737082
-3177.152736
-911.314970
-1339.583207
-2211.059271
-642.402356
-1274.844985
-3216.991641
-2948.079027
-1070.670593
-1503.918693
-2773.783815
-119.516717
-796.778116
-4018.749620
-1235.006079
413.328647
-2808.642857
-2410.253799
-19.919453
-2131.381459
-2644.307371
-34.859043
-1493.958967
-3187.112462
-1503.918693
-592.603723
-2923.179711
-2584.549012
114.536854
-1802.710486
-3431.125760
-532.845365
-164.335486
-3475.944529
-1698.133359
-99.597264
-3784.696049
-2684.146277
-234.053571
-2514.830927
-2430.173252
-253.973024
-1160.308131
-2933.139438
-2051.703647
-1075.650456
-2654.267097
-2385.354483
-597.583587
-2211.059271
-3027.756839
-502.966185
-1195.167173
-3819.555091
-2011.864742
-547.784954
-2375.394757
-2141.341185
4.979863
-1812.670213
-3665.179331
-632.442629
-199.194529
-2061.663374
-741.999620
-39.838906
-1394.361702
-886.415653
841.596884
-1000.952508
-2151.300912
956.133739
-149.395897
-3470.964666
-1200.147036
-1015.892097
-3884.293313
-2519.810790
-1190.187310
-2589.528875
-3864.373860
-1922.227204
-1050.751140
-2863.421353
-1553.717325
-542.805091
-2798.683131
-2967.998480
-1115.489362
-3495.863982
-5144.198708
-1538.777736
1832.589666
6105.312310
15313.079407
19147.574088
8923.914894
-966.093465
-1792.750760
-2594.508739
-2972.978343
273.892477
-756.939210
-3520.763298
-1215.086626
-841.596884
-3022.776976
-1598.536094
-278.872340
-1737.972264
-2509.851064
-547.784954
49.798632
-2768.803951
-1648.334726
69.718085
-2146.321049
-1309.704027
1115.489362
-1474.039514
-3002.857523
268.912614
-104.577128
-2758.844225
-428.268237
1165.287994
-1165.287994
-1274.844985
612.523176
-283.852204
-1563.677052
1259.905395
936.214286
-1847.529255
283.852204
2066.643237
-418.308511
-602.563450
2216.039134
727.060030
463.127280
2659.246960
1080.630319
497.986322
2634.347644
3545.662614
2425.193389
2470.012158
4198.024696
3296.669453
1827.609802
3759.796733
3590.481383
1025.851824
2778.763678
3879.313450
1314.683891
1025.851824
2455.072568
1095.569909
-1269.865122
288.832067
841.596884
-2430.173252
-1045.771277
995.972644
-2445.112842
-3341.488222
-916.294833
-1593.556231
-2873.381079
-926.254559
-1185.207447
-3351.447948
-1747.931991
-1090.590046
-2699.085866
-1807.690350
-109.556991
-1608.495821
-3829.514818
-1165.287994
54.778495
-3993.850304
-3092.495061
253.973024
-1867.448708
-2589.528875
-438.227964
-2106.482143
-3515.783435
-552.764818
-557.744681
-3152.253419
-1200.147036
-64.738222
-2738.924772
-2111.462006
288.832067
-1618.455547
-3461.004939
-1543.757599
-1259.905395
-2953.058891
-1703.113222
-139.436170
-2793.703267
-3097.474924
-333.650836
-2011.864742
-3092.495061
-532.845365
-727.060030
-3505.823708
-2305.676672
-522.885638
-2420.213526
-2141.341185
-253.973024
-1523.838146
-3545.662614
-1852.509119
-682.241261
-2584.549012
-1822.629939
64.738222
-1538.777736
-3137.313830
-587.623860
-478.066869
-2544.710106
219.113982
537.825228
-1728.012538
-44.818769
801.757979
-1349.542933
-1802.710486
194.214666
-811.717705
-2629.367781
-547.784954
-1140.388678
-3421.166033
-1294.764438
-801.757979
-3057.636018
-2041.743921
-483.046733
-2071.623100
-3246.870821
-1175.247720
-1115.489362
-3645.259878
-2230.978723
-846.576748
-3226.951368
-3700.038374
-2465.032295
-497.986322
5273.675152
13151.818769
18664.527356
14590.999240
3396.266717
-2235.958587
-3182.132599
-2320.616261
-468.107143
-1927.207067
-2380.374620
-707.140578
-697.180851
-1762.871581
-1439.180471
-497.986322
-1797.730623
-1877.408435
114.536854
-901.355243
-2285.757219
-49.798632
-522.885638
-2664.226824
-433.248100
1015.892097
-1742.952128
-2011.864742
682.241261
-971.073328
-2181.180091
1165.287994
1359.502660
-1947.126520
-1244.965805
1454.120061
-532.845365
-1225.046353
1792.750760
632.442629
-1498.938830
801.757979
1215.086626
-517.905775
746.979483
1663.274316
776.858663
1095.569909
2798.683131
2250.898176
861.516337
2499.891337
3027.756839
1379.422112
3062.615881
4795.608283
2768.803951
2948.079027
5064.520897
3675.139058
2370.414894
3724.937690
3575.541793
1568.656915
1827.609802
2913.219985
552.764818
-1374.442249
1379.422112
1150.348404
-2375.394757
-323.691109
627.462766
-2181.180091
-1095.569909
537.825228
-2375.394757
-2798.683131
39.838906
-1140.388678
-2768.803951
-1309.704027
-1244.965805
-2519.810790
-1195.167173
-398.389058
-1917.247340
-2564.629559
-1110.509498
-1274.844985
-2599.488602
104.577128
622.482903
-2659.246960
-1981.985562
-64.738222
-1708.093085
-1962.066109
-154.375760
-1673.234043
-2853.461626
-473.087006
179.275076
-1847.529255
-2460.052432
-856.536474
-1688.173632
-2211.059271
-268.912614
-1668.254179
-2484.951748
-119.516717
-478.066869
-2773.783815
-1404.321429
-39.838906
-2435.153116
-2709.045593
-268.912614
-1125.449088
-2624.387918
-756.939210
-29.879179
-2450.092705
-2569.609422
-114.536854
-1608.495821
-1967.045973
273.892477
-1708.093085
-3147.273556
-1015.892097
-74.697948
-2111.462006
-1374.442249
1150.348404
-881.435790
-1653.314590
1050.751140
-39.838906
-1568.656915
811.717705
557.744681
-1991.945289
-1618.455547
368.509878
-1673.234043
-3142.293693
174.295213
-971.073328
-3047.676292
-159.355623
-522.885638
-3515.783435
-2141.341185
263.932751
-1857.488982
-3520.763298
-378.469605
-697.180851
-3306.629179
-1409.301292
-1598.536094
-3849.434271
1533.797872
9571.297112
12374.960106
14879.831307
12559.215046
-74.697948
-6473.822188
-1354.522796
323.691109
-2086.562690
-707.140578
831.637158
-1404.321429
-1991.945289
244.013298
-507.946049
-2016.844605
184.254939
184.254939
-2460.052432
-1030.831687
811.717705
-1215.086626
-936.214286
995.972644
-1354.522796
-2410.253799
1030.831687
911.314970
-1718.052812
174.295213
1623.435410
-771.878799
-951.153875
1747.931991
741.999620
-1150.348404
1145.368541
876.455927
-1070.670593
1309.704027
2295.716945
-179.275076
637.422492
2853.461626
1389.381839
-124.496581
2330.575988
3346.468085
552.764818
1573.636778
3899.232903
2300.696809
2116.441869
4437.058131
3540.682751
1409.301292
3635.300152
4427.098404
2136.361322
3167.193009
4686.051292
3545.662614
2395.314210
3744.857143
3037.716565
458.147416
2245.918313
2499.891337
-1140.388678
-358.550152
1832.589666
-1125.449088
-1827.609802
9.959726
-1942.146657
-2245.918313
29.879179
-343.610562
-2096.522416
-1693.153495
94.617401
-1618.455547
-2589.528875
766.898936
124.496581
-2425.193389
-612.523176
169.315350
-2161.260638
-1434.200608
408.348784
-1777.811170
-2554.669833
-244.013298
174.295213
-1673.234043
-1598.536094
-836.617021
-1603.515957
-657.341945
677.261398
-801.757979
-1528.818009
4.979863
-946.174012
-2330.575988
-936.214286
29.879179
-2041.743921
-1907.287614
398.389058
-1991.945289
-2589.528875
871.476064
-1025.851824
-3490.884119
-986.012918
-293.811930
-2111.462006
-1459.099924
39.838906
-1618.455547
-2116.441869
244.013298
-1384.401976
-3256.830547
-248.993161
-89.637538
-2584.549012
-1110.509498
1140.388678
-1170.267857
-2509.851064
851.556611
1010.912234
-1364.482523
323.691109
1289.784574
-1523.838146
-956.133739
278.872340
-2549.689970
-2305.676672
512.925912
-1150.348404
-3615.380699
-1578.616641
-1060.710866
-3331.528495
-1668.254179
796.778116
-1195.167173
-2728.965046
-1100.549772
-1419.261018
-3316.588906
-1747.931991
-1254.925532
-3157.233283
2111.462006
10139.001520
12190.705167
13739.442629
11249.511018
-871.476064
-7200.882219
-2415.233663
124.496581
-2450.092705
-1558.697188
1344.563070
-1259.905395
-2509.851064
761.919073
-24.899316
-2126.401596
-44.818769
517.905775
-1558.697188
-961.113602
537.825228
-652.362082
-1613.475684
-278.872340
-14.939590
-971.073328
507.946049
1155.328267
-1030.831687
-353.570289
667.301672
-737.019757
-781.838526
1488.979103
1703.113222
-971.073328
552.764818
1583.596505
-398.389058
119.516717
1553.717325
881.435790
-283.852204
2166.240502
2420.213526
114.536854
2639.327508
2763.824088
-662.321809
2116.441869
4611.353343
1439.180471
1867.448708
4476.897036
2918.199848
2260.857903
3456.025076
3172.172872
2365.435030
3465.984802
5149.178571
2963.018617
1867.448708
3874.333587
2938.119301
-433.248100
622.482903
2435.153116
-931.234422
-816.697568
1220.066489
-1269.865122
-2679.166413
-159.355623
-707.140578
-2669.206687
-239.033435
567.704407
-1962.066109
-1787.770897
751.959347
-1364.482523
-2594.508739
468.107143
-672.281535
-2584.549012
-358.550152
204.174392
-1977.005699
-1528.818009
-433.248100
-1364.482523
-2111.462006
-756.939210
-29.879179
-1947.126520
-702.160714
413.328647
-2235.958587
-1598.536094
572.684271
-876.455927
-1518.858283
149.395897
-288.832067
-2420.213526
-1200.147036
159.355623
-2375.394757
-2395.314210
239.033435
-1573.636778
-2728.965046
741.999620
-149.395897
-3142.293693
-846.576748
308.751520
-2031.784195
-1822.629939
-214.134119
