0.000000
0.000000
0.000000
0.000000
0.000000
0.000000
0.000000
0.000000
0.000000
0.000000
0.000000
0.000000
0.000000
0.000000
0.000000
0.000000
0.000000
0.000000
0.000000
0.000000
0.000000
0.000000
0.000000
0.000000
0.000000
0.000000
0.000000
0.000000
0.000000
0.000000
0.000000
0.000000
0.000000
0.000000
0.000000
0.000000
0.000000
0.000000
0.000000
0.000000
0.000000
0.000000
0.000000
0.000000
0.000000
0.000000
0.000000
0.000000
0.000000
0.000000
0.000000
0.000000
0.000000
0.000000
0.000000
0.000000
0.000000
0.000000
0.000000
0.000000
0.000000
0.000000
0.000000
0.000000
0.000000
0.000000
0.000000
0.000000
0.000000
0.000000
0.000000
0.000000
0.000000
0.000000
0.000000
0.000000
0.000000
0.000000
0.000000
0.000000
0.000000
0.000000
0.000000
0.000000
0.000000
0.000000
0.000000
0.000000
0.000000
0.000000
0.000000
0.000000
0.000000
0.000000
0.000000
0.000000
0.000000
0.000000
0.000000
0.000000
0.000000
0.000000
0.000000
0.000000
0.000000
0.000000
0.000000
0.000000
0.000000
0.000000
0.000000
0.000000
0.000000
0.000000
0.000000
0.000000
0.000000
0.000000
0.000000
0.000000
0.000000
0.000000
0.000000
0.000000
0.000000
0.000000
0.000000
0.000000
0.000000
0.000000
0.000000
0.000000
0.000000
0.000000
0.000000
0.000000
0.000000
0.000000
0.000000
0.000000
0.000000
0.000000
0.000000
0.000000
0.000000
0.000000
0.000000
0.000000
0.000000
0.000000
0.000000
0.000000
0.000000
0.000000
0.000000
0.000000
0.000000
0.000000
0.000000
0.000000
0.000000
0.000000
0.000000
0.000000
0.000000
0.000000
0.000000
0.000000
0.000000
0.000000
0.000000
0.000000
0.000000
0.000000
0.000000
0.000000
0.000000
0.000000
0.000000
0.000000
0.000000
0.000000
0.000000
0.000000
0.000000
0.000000
0.000000
0.000000
0.000000
0.000000
0.000000
0.000000
0.000000
0.000000
0.000000
0.000000
0.000000
0.000000
0.000000
0.000000
0.000000
0.000000
0.000000
0.000000
0.000000
0.000000
0.000000
0.000000
0.000000
0.000000
0.000000
0.000000
0.000000
0.000000
0.000000
0.000000
0.000000
0.000000
0.000000
0.000000
0.000000
0.000000
0.000000
0.000000
0.000000
0.000000
0.000000
0.000000
0.000000
0.000000
0.000000
0.000000
0.000000
0.000000
0.000000
0.000000
0.000000
0.000000
0.000000
0.000000
0.000000
0.000000
0.000000
0.000000
0.000000
0.000000
0.000000
0.000000
0.000000
0.000000
0.000000
0.000000
0.000000
0.000000
0.000000
0.000000
0.000000
0.000000
0.000000
0.000000
0.000000
0.000000
0.000000
0.000000
0.000000
0.000000
0.000000
0.000000
0.000000
0.000000
0.000000
0.000000
0.000000
0.000000
0.000000
0.000000
0.000000
0.000000
0.000000
0.000000
0.000000
0.000000
0.000000
0.000000
0.000000
0.000000
0.000000
0.000000
0.000000
0.000000
0.000000
0.000000
0.000000
0.000000
0.000000
0.000000
0.000000
0.000000
0.000000
0.000000
0.000000
0.000000
0.000000
0.000000
0.000000
0.000000
0.000000
0.000000
0.000000
0.000000
0.000000
0.000000
0.000000
0.000000
0.000000
0.000000
0.000000
0.000000
0.000000
0.000000
0.000000
0.000000
0.000000
0.000000
0.000000
0.000000
0.000000
0.000000
0.000000
0.000000
0.000000
0.000000
0.000000
0.000000
0.000000
0.000000
0.000000
0.000000
0.000000
0.000000
0.000000
0.000000
0.000000
0.000000
0.000000
0.000000
0.000000
0.000000
0.000000
0.000000
0.000000
0.000000
0.000000
0.000000
0.000000
0.000000
0.000000
0.000000
0.000000
0.000000
0.000000
0.000000
0.000000
0.000000
0.000000
0.000000
0.000000
0.000000
0.000000
0.000000
0.000000
0.000000
0.000000
0.000000
0.000000
0.000000
0.000000
0.000000
0.000000
0.000000
0.000000
0.000000
0.000000
0.000000
0.000000
0.000000
0.000000
0.000000
0.000000
0.000000
0.000000
0.000000
0.000000
0.000000
0.000000
0.000000
0.000000
0.000000
0.000000
0.000000
539.991760
0.000000
307.995300
359.994507
155.997620
127.998047
387.994080
335.994873
155.997620
387.994080
411.993713
103.998413
283.995667
307.995300
155.997620
231.996460
179.997253
411.993713
-103.998413
259.996033
411.993713
51.999207
103.998413
259.996033
-51.999207
75.998840
103.998413
51.999207
-75.998840
-51.999207
155.997620
-231.996460
-207.996826
-23.999634
-127.998047
-359.994507
0.000000
103.998413
-179.997253
-75.998840
-103.998413
-307.995300
-307.995300
-307.995300
-335.994873
-591.990967
-23.999634
75.998840
-463.992920
0.000000
-179.997253
-283.995667
-259.996033
-179.997253
-283.995667
-411.993713
-103.998413
-179.997253
-695.989380
-155.997620
-259.996033
-231.996460
-207.996826
-259.996033
23.999634
-515.992126
-51.999207
-207.996826
-179.997253
-179.997253
-207.996826
-231.996460
-155.997620
23.999634
-103.998413
-207.996826
51.999207
155.997620
-155.997620
127.998047
155.997620
-179.997253
-283.995667
0.000000
-283.995667
-283.995667
179.997253
103.998413
-103.998413
51.999207
179.997253
-283.995667
-75.998840
23.999634
23.999634
0.000000
127.998047
335.994873
0.000000
207.996826
307.995300
-51.999207
-127.998047
179.997253
127.998047
207.996826
231.996460
155.997620
-51.999207
155.997620
283.995667
75.998840
-75.998840
75.998840
51.999207
-23.999634
307.995300
155.997620
23.999634
463.992920
619.990540
127.998047
0.000000
335.994873
75.998840
75.998840
155.997620
283.995667
283.995667
103.998413
259.996033
-387.994080
-23.999634
179.997253
207.996826
-179.997253
207.996826
-51.999207
-155.997620
179.997253
259.996033
0.000000
-23.999634
259.996033
-283.995667
75.998840
127.998047
259.996033
0.000000
103.998413
307.995300
-103.998413
23.999634
207.996826
-103.998413
-155.997620
155.997620
0.000000
0.000000
51.999207
-23.999634
-51.999207
127.998047
-155.997620
103.998413
-307.995300
231.996460
51.999207
-127.998047
-155.997620
0.000000
-23.999634
-155.997620
207.996826
-207.996826
-231.996460
155.997620
23.999634
0.000000
-51.999207
-103.998413
-75.998840
-23.999634
51.999207
-75.998840
-307.995300
75.998840
-23.999634
-51.999207
0.000000
179.997253
-23.999634
179.997253
259.996033
75.998840
127.998047
127.998047
307.995300
-51.999207
103.998413
335.994873
-23.999634
75.998840
231.996460
127.998047
0.000000
75.998840
307.995300
-23.999634
-23.999634
0.000000
-127.998047
-51.999207
75.998840
-23.999634
-283.995667
75.998840
-103.998413
-207.996826
-127.998047
51.999207
-179.997253
-103.998413
23.999634
-75.998840
-231.996460
0.000000
75.998840
-259.996033
-127.998047
-51.999207
-155.997620
-307.995300
179.997253
-231.996460
-155.997620
103.998413
335.994873
-75.998840
75.998840
-23.999634
-51.999207
23.999634
307.995300
75.998840
-127.998047
155.997620
179.997253
0.000000
259.996033
207.996826
-103.998413
-23.999634
207.996826
127.998047
103.998413
231.996460
259.996033
-155.997620
-155.997620
359.994507
-179.997253
0.000000
439.993286
207.996826
-23.999634
231.996460
207.996826
75.998840
103.998413
-23.999634
-127.998047
-75.998840
259.996033
-75.998840
-51.999207
127.998047
75.998840
-411.993713
-51.999207
-75.998840
-51.999207
0.000000
127.998047
75.998840
-179.997253
231.996460
179.997253
-127.998047
155.997620
-231.996460
-51.999207
-127.998047
259.996033
283.995667
-51.999207
283.995667
307.995300
0.000000
259.996033
335.994873
23.999634
23.999634
259.996033
179.997253
259.996033
231.996460
515.992126
-75.998840
155.997620
539.991760
207.996826
127.998047
411.993713
-23.999634
307.995300
387.994080
359.994507
127.998047
335.994873
463.992920
-23.999634
127.998047
619.990540
283.995667
643.990173
283.995667
439.993286
207.996826
207.996826
491.992493
231.996460
51.999207
539.991760
207.996826
207.996826
387.994080
155.997620
799.987793
103.998413
567.991333
179.997253
231.996460
463.992920
335.994873
439.993286
439.993286
439.993286
387.994080
155.997620
463.992920
335.994873
335.994873
775.988159
259.996033
359.994507
283.995667
307.995300
231.996460
103.998413
463.992920
23.999634
179.997253
359.994507
103.998413
231.996460
283.995667
231.996460
127.998047
51.999207
515.992126
283.995667
155.997620
283.995667
207.996826
103.998413
155.997620
387.994080
51.999207
259.996033
387.994080
155.997620
103.998413
463.992920
103.998413
-23.999634
335.994873
259.996033
75.998840
-23.999634
619.990540
103.998413
207.996826
259.996033
155.997620
-75.998840
155.997620
207.996826
-75.998840
207.996826
179.997253
155.997620
23.999634
127.998047
127.998047
-231.996460
103.998413
103.998413
0.000000
359.994507
127.998047
23.999634
0.000000
103.998413
23.999634
-103.998413
0.000000
103.998413
0.000000
103.998413
231.996460
-231.996460
-51.999207
179.997253
-359.994507
-103.998413
75.998840
179.997253
23.999634
155.997620
179.997253
-103.998413
155.997620
103.998413
23.999634
-387.994080
127.998047
207.996826
-103.998413
155.997620
231.996460
23.999634
0.000000
103.998413
0.000000
-103.998413
283.995667
259.996033
0.000000
-155.997620
231.996460
-51.999207
23.999634
411.993713
127.998047
-231.996460
259.996033
-23.999634
75.998840
231.996460
127.998047
0.000000
75.998840
283.995667
51.999207
-259.996033
103.998413
23.999634
-23.999634
155.997620
231.996460
-23.999634
75.998840
0.000000
75.998840
-207.996826
103.998413
127.998047
-231.996460
-75.998840
23.999634
-23.999634
103.998413
207.996826
23.999634
-231.996460
0.000000
155.997620
-51.999207
283.995667
103.998413
0.000000
103.998413
127.998047
-103.998413
-231.996460
75.998840
23.999634
-127.998047
0.000000
127.998047
-75.998840
103.998413
-127.998047
-51.999207
-207.996826
75.998840
-51.999207
51.999207
-23.999634
-23.999634
-155.997620
23.999634
-51.999207
-335.994873
-127.998047
51.999207
75.998840
-23.999634
155.997620
155.997620
-23.999634
23.999634
155.997620
23.999634
-231.996460
127.998047
179.997253
-103.998413
103.998413
23.999634
179.997253
23.999634
259.996033
127.998047
-51.999207
283.995667
75.998840
23.999634
51.999207
259.996033
23.999634
-23.999634
75.998840
0.000000
-127.998047
207.996826
-179.997253
23.999634
-51.999207
207.996826
-23.999634
-51.999207
75.998840
-23.999634
0.000000
231.996460
0.000000
-23.999634
23.999634
207.996826
-307.995300
-75.998840
23.999634
-179.997253
-179.997253
179.997253
103.998413
-75.998840
-179.997253
179.997253
75.998840
-127.998047
103.998413
-23.999634
-283.995667
23.999634
127.998047
-75.998840
-75.998840
179.997253
-179.997253
-103.998413
155.997620
-51.999207
-335.994873
51.999207
23.999634
-75.998840
103.998413
259.996033
0.000000
-103.998413
231.996460
23.999634
-283.995667
103.998413
51.999207
-179.997253
-51.999207
103.998413
-155.997620
-179.997253
-51.999207
-23.999634
-335.994873
103.998413
75.998840
-283.995667
23.999634
179.997253
-179.997253
-335.994873
207.996826
-155.997620
-127.998047
75.998840
0.000000
-127.998047
-51.999207
51.999207
-283.995667
-75.998840
-207.996826
-155.997620
-75.998840
155.997620
103.998413
-127.998047
23.999634
51.999207
-207.996826
-155.997620
23.999634
-103.998413
-463.992920
207.996826
51.999207
-179.997253
51.999207
179.997253
-51.999207
-283.995667
127.998047
-283.995667
-335.994873
463.992920
-179.997253
-127.998047
-23.999634
155.997620
-179.997253
-179.997253
103.998413
-359.994507
-439.993286
75.998840
-51.999207
-127.998047
-103.998413
23.999634
-207.996826
-539.991760
127.998047
-283.995667
-283.995667
207.996826
0.000000
-259.996033
-51.999207
-259.996033
-335.994873
-231.996460
51.999207
-103.998413
-411.993713
0.000000
-75.998840
-439.993286
0.000000
-51.999207
-259.996033
-283.995667
-179.997253
-335.994873
-283.995667
-103.998413
-127.998047
-231.996460
-75.998840
155.997620
23.999634
-207.996826
-231.996460
0.000000
-335.994873
0.000000
207.996826
-283.995667
-207.996826
23.999634
-231.996460
-231.996460
-75.998840
-51.999207
-259.996033
103.998413
0.000000
-207.996826
51.999207
-103.998413
-307.995300
-387.994080
207.996826
-283.995667
-411.993713
23.999634
-51.999207
-75.998840
23.999634
-51.999207
-231.996460
-207.996826
0.000000
-155.997620
-439.993286
127.998047
23.999634
-23.999634
-51.999207
127.998047
-231.996460
-103.998413
127.998047
-207.996826
-75.998840
103.998413
75.998840
-23.999634
0.000000
207.996826
-103.998413
75.998840
127.998047
75.998840
-155.997620
-155.997620
155.997620
-127.998047
155.997620
307.995300
-23.999634
23.999634
207.996826
23.999634
0.000000
179.997253
103.998413
-103.998413
-51.999207
411.993713
51.999207
75.998840
539.991760
-51.999207
259.996033
307.995300
127.998047
155.997620
207.996826
283.995667
103.998413
103.998413
307.995300
127.998047
179.997253
335.994873
387.994080
155.997620
155.997620
359.994507
75.998840
23.999634
231.996460
75.998840
231.996460
335.994873
231.996460
207.996826
491.992493
591.990967
335.994873
75.998840
515.992126
515.992126
619.990540
619.990540
411.993713
51.999207
439.993286
591.990967
491.992493
515.992126
591.990967
307.995300
207.996826
567.991333
567.991333
335.994873
359.994507
643.990173
127.998047
359.994507
359.994507
283.995667
103.998413
283.995667
387.994080
155.997620
207.996826
179.997253
127.998047
-179.997253
387.994080
155.997620
51.999207
-103.998413
75.998840
-51.999207
179.997253
283.995667
51.999207
-51.999207
231.996460
-51.999207
-207.996826
23.999634
179.997253
-103.998413
231.996460
155.997620
-51.999207
-155.997620
387.994080
-23.999634
-179.997253
103.998413
75.998840
-51.999207
-231.996460
439.993286
-231.996460
0.000000
259.996033
23.999634
-155.997620
335.994873
75.998840
-23.999634
155.997620
23.999634
-51.999207
75.998840
75.998840
-51.999207
-75.998840
127.998047
75.998840
-75.998840
23.999634
75.998840
0.000000
-75.998840
231.996460
0.000000
-207.996826
231.996460
231.996460
75.998840
359.994507
231.996460
231.996460
75.998840
259.996033
127.998047
23.999634
207.996826
231.996460
179.997253
231.996460
283.995667
155.997620
207.996826
411.993713
307.995300
23.999634
259.996033
335.994873
-155.997620
259.996033
359.994507
155.997620
127.998047
127.998047
75.998840
0.000000
283.995667
207.996826
-23.999634
155.997620
103.998413
-75.998840
103.998413
259.996033
127.998047
-127.998047
283.995667
51.999207
23.999634
359.994507
75.998840
-207.996826
103.998413
103.998413
-51.999207
-179.997253
103.998413
127.998047
23.999634
75.998840
23.999634
-51.999207
-51.999207
127.998047
-23.999634
-127.998047
75.998840
23.999634
-103.998413
231.996460
283.995667
-207.996826
0.000000
207.996826
-103.998413
-179.997253
335.994873
103.998413
-179.997253
75.998840
75.998840
-23.999634
-51.999207
75.998840
155.997620
-307.995300
75.998840
231.996460
-51.999207
23.999634
-75.998840
155.997620
-155.997620
179.997253
103.998413
-283.995667
179.997253
207.996826
179.997253
207.996826
411.993713
-75.998840
-207.996826
259.996033
-75.998840
-335.994873
515.992126
179.997253
0.000000
155.997620
231.996460
-75.998840
-51.999207
155.997620
23.999634
-103.998413
103.998413
179.997253
-231.996460
231.996460
207.996826
-51.999207
51.999207
179.997253
-359.994507
-103.998413
179.997253
335.994873
51.999207
359.994507
207.996826
-103.998413
207.996826
155.997620
51.999207
-51.999207
179.997253
179.997253
-51.999207
231.996460
207.996826
-103.998413
0.000000
155.997620
103.998413
-307.995300
127.998047
179.997253
51.999207
307.995300
359.994507
75.998840
155.997620
259.996033
155.997620
-103.998413
231.996460
231.996460
23.999634
155.997620
259.996033
0.000000
-51.999207
207.996826
75.998840
-207.996826
411.993713
155.997620
23.999634
51.999207
463.992920
-103.998413
0.000000
207.996826
283.995667
0.000000
51.999207
103.998413
23.999634
155.997620
103.998413
51.999207
23.999634
179.997253
-127.998047
-179.997253
75.998840
103.998413
51.999207
207.996826
-75.998840
0.000000
23.999634
359.994507
103.998413
75.998840
307.995300
179.997253
103.998413
179.997253
619.990540
75.998840
179.997253
387.994080
307.995300
155.997620
591.990967
387.994080
231.996460
491.992493
567.991333
335.994873
179.997253
307.995300
75.998840
103.998413
359.994507
103.998413
127.998047
259.996033
307.995300
155.997620
231.996460
359.994507
-155.997620
283.995667
307.995300
439.993286
127.998047
259.996033
411.993713
75.998840
103.998413
127.998047
127.998047
-103.998413
283.995667
51.999207
-23.999634
155.997620
439.993286
-103.998413
23.999634
207.996826
-103.998413
-75.998840
75.998840
23.999634
-103.998413
-103.998413
231.996460
-155.997620
-51.999207
179.997253
103.998413
-259.996033
-23.999634
-23.999634
-207.996826
23.999634
231.996460
-335.994873
-23.999634
103.998413
-75.998840
-155.997620
0.000000
127.998047
-207.996826
75.998840
179.997253
-23.999634
-51.999207
103.998413
0.000000
-231.996460
0.000000
51.999207
23.999634
75.998840
259.996033
-51.999207
-23.999634
0.000000
75.998840
-103.998413
127.998047
75.998840
51.999207
155.997620
259.996033
-75.998840
207.996826
103.998413
75.998840
-23.999634
23.999634
127.998047
127.998047
179.997253
283.995667
-103.998413
-155.997620
259.996033
-23.999634
23.999634
207.996826
283.995667
0.000000
207.996826
359.994507
127.998047
51.999207
387.994080
75.998840
-23.999634
231.996460
231.996460
103.998413
259.996033
231.996460
103.998413
127.998047
283.995667
-23.999634
-51.999207
75.998840
359.994507
-23.999634
179.997253
51.999207
-51.999207
0.000000
231.996460
51.999207
-103.998413
207.996826
127.998047
-23.999634
51.999207
207.996826
-51.999207
-51.999207
207.996826
0.000000
-75.998840
127.998047
231.996460
-51.999207
23.999634
179.997253
-155.997620
0.000000
127.998047
-283.995667
23.999634
51.999207
207.996826
-51.999207
23.999634
127.998047
23.999634
0.000000
283.995667
-23.999634
127.998047
155.997620
127.998047
-103.998413
75.998840
103.998413
-127.998047
23.999634
103.998413
-207.996826
23.999634
283.995667
207.996826
-103.998413
23.999634
283.995667
-179.997253
-179.997253
-155.997620
-259.996033
-231.996460
51.999207
75.998840
103.998413
103.998413
23.999634
-51.999207
-307.995300
51.999207
-127.998047
-155.997620
155.997620
179.997253
-75.998840
51.999207
207.996826
-155.997620
-23.999634
51.999207
0.000000
-207.996826
-23.999634
127.998047
-103.998413
179.997253
335.994873
51.999207
23.999634
231.996460
51.999207
-75.998840
283.995667
103.998413
51.999207
127.998047
307.995300
127.998047
155.997620
307.995300
103.998413
-103.998413
51.999207
359.994507
51.999207
127.998047
259.996033
51.999207
-23.999634
75.998840
0.000000
-75.998840
259.996033
259.996033
207.996826
51.999207
439.993286
0.000000
-51.999207
179.997253
155.997620
-51.999207
207.996826
179.997253
103.998413
411.993713
463.992920
103.998413
-23.999634
283.995667
-51.999207
-23.999634
231.996460
155.997620
0.000000
-23.999634
515.992126
-127.998047
-51.999207
207.996826
-23.999634
-51.999207
-23.999634
51.999207
-23.999634
103.998413
179.997253
-75.998840
-23.999634
-75.998840
75.998840
-207.996826
283.995667
155.997620
0.000000
75.998840
259.996033
75.998840
-23.999634
155.997620
23.999634
-75.998840
283.995667
155.997620
-51.999207
155.997620
259.996033
23.999634
23.999634
127.998047
23.999634
-23.999634
51.999207
155.997620
0.000000
179.997253
231.996460
-23.999634
75.998840
231.996460
155.997620
-103.998413
155.997620
155.997620
-51.999207
207.996826
207.996826
0.000000
0.000000
155.997620
127.998047
23.999634
231.996460
127.998047
0.000000
259.996033
411.993713
155.997620
-51.999207
179.997253
179.997253
-127.998047
359.994507
283.995667
207.996826
335.994873
515.992126
283.995667
231.996460
231.996460
207.996826
0.000000
259.996033
359.994507
0.000000
103.998413
463.992920
51.999207
283.995667
387.994080
207.996826
51.999207
307.995300
307.995300
-23.999634
103.998413
283.995667
51.999207
127.998047
307.995300
103.998413
103.998413
155.997620
359.994507
75.998840
335.994873
491.992493
155.997620
155.997620
359.994507
207.996826
-103.998413
463.992920
359.994507
283.995667
283.995667
207.996826
155.997620
127.998047
259.996033
283.995667
127.998047
387.994080
411.993713
207.996826
259.996033
359.994507
231.996460
179.997253
335.994873
75.998840
23.999634
155.997620
335.994873
75.998840
359.994507
387.994080
231.996460
307.995300
411.993713
179.997253
155.997620
179.997253
335.994873
155.997620
491.992493
127.998047
127.998047
103.998413
127.998047
207.996826
51.999207
307.995300
231.996460
179.997253
127.998047
439.993286
-75.998840
23.999634
283.995667
103.998413
23.999634
259.996033
259.996033
127.998047
283.995667
307.995300
127.998047
75.998840
259.996033
-51.999207
127.998047
207.996826
259.996033
23.999634
179.997253
231.996460
23.999634
75.998840
127.998047
75.998840
-127.998047
283.995667
307.995300
-23.999634
179.997253
307.995300
51.999207
75.998840
207.996826
23.999634
-207.996826
259.996033
51.999207
51.999207
75.998840
207.996826
23.999634
0.000000
155.997620
75.998840
-103.998413
155.997620
179.997253
-51.999207
259.996033
207.996826
-23.999634
103.998413
155.997620
127.998047
-179.997253
179.997253
-51.999207
-103.998413
-51.999207
283.995667
-75.998840
-23.999634
103.998413
0.000000
-155.997620
231.996460
179.997253
23.999634
207.996826
307.995300
-51.999207
51.999207
259.996033
-75.998840
-75.998840
75.998840
155.997620
-207.996826
179.997253
259.996033
-51.999207
-127.998047
127.998047
0.000000
75.998840
307.995300
179.997253
23.999634
127.998047
259.996033
-23.999634
-23.999634
231.996460
51.999207
51.999207
75.998840
283.995667
-207.996826
103.998413
207.996826
0.000000
103.998413
127.998047
127.998047
207.996826
103.998413
103.998413
-103.998413
51.999207
439.993286
23.999634
103.998413
155.997620
23.999634
155.997620
207.996826
283.995667
75.998840
179.997253
283.995667
-23.999634
103.998413
207.996826
179.997253
155.997620
259.996033
127.998047
23.999634
259.996033
231.996460
103.998413
51.999207
207.996826
0.000000
179.997253
259.996033
179.997253
0.000000
231.996460
207.996826
23.999634
-51.999207
-179.997253
207.996826
-259.996033
359.994507
283.995667
127.998047
207.996826
283.995667
75.998840
-51.999207
307.995300
75.998840
-103.998413
207.996826
75.998840
-75.998840
103.998413
231.996460
-23.999634
0.000000
207.996826
103.998413
127.998047
179.997253
155.997620
23.999634
307.995300
335.994873
-75.998840
75.998840
259.996033
-75.998840
307.995300
207.996826
359.994507
103.998413
231.996460
307.995300
51.999207
0.000000
283.995667
127.998047
179.997253
259.996033
439.993286
75.998840
259.996033
179.997253
23.999634
-23.999634
259.996033
103.998413
-231.996460
179.997253
51.999207
51.999207
23.999634
179.997253
-103.998413
-155.997620
387.994080
-179.997253
51.999207
463.992920
103.998413
23.999634
231.996460
207.996826
0.000000
-75.998840
155.997620
127.998047
-23.999634
259.996033
155.997620
0.000000
0.000000
231.996460
-23.999634
-127.998047
231.996460
23.999634
231.996460
259.996033
127.998047
-23.999634
127.998047
127.998047
-127.998047
-127.998047
-75.998840
179.997253
-179.997253
231.996460
75.998840
-75.998840
-23.999634
359.994507
-127.998047
51.999207
103.998413
103.998413
-75.998840
283.995667
179.997253
0.000000
-23.999634
179.997253
-75.998840
0.000000
283.995667
51.999207
-179.997253
127.998047
-23.999634
-127.998047
155.997620
231.996460
0.000000
-179.997253
127.998047
-51.999207
-75.998840
307.995300
155.997620
51.999207
-23.999634
103.998413
-179.997253
0.000000
207.996826
75.998840
-127.998047
23.999634
359.994507
-179.997253
51.999207
75.998840
-155.997620
-103.998413
127.998047
-75.998840
-463.992920
207.996826
75.998840
-259.996033
0.000000
-23.999634
0.000000
-23.999634
103.998413
103.998413
-259.996033
231.996460
155.997620
-127.998047
75.998840
307.995300
-179.997253
51.999207
75.998840
-75.998840
335.994873
-127.998047
359.994507
-51.999207
23.999634
307.995300
51.999207
23.999634
283.995667
103.998413
207.996826
179.997253
231.996460
23.999634
155.997620
283.995667
23.999634
-75.998840
207.996826
-155.997620
179.997253
155.997620
179.997253
283.995667
-207.996826
491.992493
-51.999207
-51.999207
259.996033
207.996826
0.000000
259.996033
127.998047
-75.998840
127.998047
259.996033
-23.999634
51.999207
259.996033
51.999207
127.998047
307.995300
335.994873
-179.997253
231.996460
231.996460
0.000000
127.998047
207.996826
103.998413
-207.996826
231.996460
283.995667
-179.997253
231.996460
491.992493
-23.999634
155.997620
335.994873
0.000000
-231.996460
207.996826
207.996826
155.997620
259.996033
207.996826
51.999207
75.998840
103.998413
75.998840
-307.995300
-231.996460
103.998413
103.998413
307.995300
155.997620
23.999634
23.999634
0.000000
51.999207
-75.998840
51.999207
179.997253
-23.999634
103.998413
127.998047
-23.999634
-127.998047
307.995300
0.000000
179.997253
747.988586
0.000000
75.998840
127.998047
359.994507
127.998047
-283.995667
283.995667
-127.998047
127.998047
127.998047
231.996460
0.000000
103.998413
0.000000
75.998840
-23.999634
335.994873
0.000000
103.998413
127.998047
155.997620
-51.999207
51.999207
51.999207
-155.997620
-75.998840
51.999207
0.000000
127.998047
259.996033
127.998047
-75.998840
23.999634
0.000000
-179.997253
-23.999634
307.995300
-259.996033
-23.999634
-127.998047
259.996033
-259.996033
0.000000
-155.997620
-335.994873
-283.995667
-23.999634
-259.996033
-359.994507
51.999207
-463.992920
-539.991760
-207.996826
-259.996033
-179.997253
-491.992493
-23.999634
-231.996460
-75.998840
-155.997620
-155.997620
-307.995300
0.000000
-103.998413
-207.996826
-439.993286
103.998413
-283.995667
-307.995300
75.998840
-75.998840
-179.997253
-103.998413
259.996033
-103.998413
-259.996033
75.998840
515.992126
-127.998047
75.998840
23.999634
-179.997253
-231.996460
23.999634
-259.996033
-155.997620
23.999634
-51.999207
-75.998840
-103.998413
0.000000
-155.997620
-207.996826
1495.977173
-283.995667
-155.997620
-75.998840
335.994873
23.999634
103.998413
-179.997253
-51.999207
-51.999207
179.997253
-259.996033
-231.996460
-103.998413
-231.996460
-75.998840
-23.999634
103.998413
-103.998413
179.997253
51.999207
1263.980713
-179.997253
103.998413
-155.997620
103.998413
75.998840
-51.999207
-335.994873
-283.995667
335.994873
-207.996826
0.000000
179.997253
259.996033
0.000000
283.995667
155.997620
-23.999634
127.998047
127.998047
-51.999207
-75.998840
335.994873
1083.983459
-23.999634
-23.999634
155.997620
-387.994080
231.996460
103.998413
23.999634
-51.999207
51.999207
-155.997620
-51.999207
75.998840
-75.998840
-307.995300
-103.998413
0.000000
-207.996826
-283.995667
-23.999634
-127.998047
-207.996826
-103.998413
155.997620
-75.998840
-23.999634
103.998413
-259.996033
-103.998413
-23.999634
0.000000
51.999207
-75.998840
-231.996460
51.999207
-231.996460
23.999634
-335.994873
-103.998413
-23.999634
-51.999207
-259.996033
-75.998840
-75.998840
-307.995300
127.998047
-75.998840
-387.994080
335.994873
103.998413
-23.999634
-127.998047
-23.999634
75.998840
-491.992493
75.998840
23.999634
-155.997620
-231.996460
-103.998413
-283.995667
-75.998840
-259.996033
-259.996033
-231.996460
-439.993286
231.996460
-491.992493
-179.997253
-259.996033
-411.993713
-155.997620
-259.996033
-539.991760
-2475.962219
-775.988159
23.999634
-179.997253
-231.996460
-179.997253
-283.995667
-591.990967
-179.997253
-231.996460
-359.994507
-75.998840
-359.994507
-439.993286
-335.994873
-127.998047
-207.996826
-695.989380
-207.996826
-75.998840
-387.994080
-103.998413
-155.997620
-723.988953
-207.996826
-387.994080
-283.995667
-567.991333
-307.995300
-463.992920
-359.994507
-259.996033
-387.994080
-23.999634
-491.992493
-179.997253
-411.993713
-539.991760
-207.996826
-51.999207
-539.991760
-439.993286
-439.993286
-231.996460
-411.993713
-75.998840
-335.994873
-695.989380
-307.995300
-259.996033
-359.994507
-283.995667
23.999634
-283.995667
-463.992920
-283.995667
-387.994080
-359.994507
-283.995667
-359.994507
-75.998840
-539.991760
-259.996033
-155.997620
-387.994080
875.986633
-283.995667
-411.993713
-259.996033
-75.998840
-463.992920
-283.995667
-207.996826
-259.996033
-515.992126
-515.992126
-103.998413
-359.994507
-179.997253
-155.997620
-723.988953
-103.998413
-179.997253
-335.994873
-335.994873
-75.998840
-439.993286
-591.990967
-155.997620
-307.995300
-155.997620
-259.996033
-23.999634
-307.995300
-387.994080
-127.998047
-387.994080
-359.994507
155.997620
-283.995667
-619.990540
-75.998840
-207.996826
-411.993713
-359.994507
-23.999634
-283.995667
-155.997620
-359.994507
-439.993286
-283.995667
-411.993713
-103.998413
-307.995300
-515.992126
-387.994080
-307.995300
-259.996033
-51.999207
-207.996826
-307.995300
-387.994080
-207.996826
-359.994507
-411.993713
0.000000
-335.994873
-283.995667
-127.998047
-75.998840
-231.996460
-359.994507
155.997620
-439.993286
-387.994080
-207.996826
-411.993713
-515.992126
-207.996826
-127.998047
-231.996460
-491.992493
-283.995667
-463.992920
-671.989746
0.000000
-307.995300
-387.994080
-155.997620
-259.996033
-307.995300
-75.998840
-259.996033
-851.987000
0.000000
-335.994873
-75.998840
-359.994507
-307.995300
-335.994873
-567.991333
-155.997620
-307.995300
-103.998413
-307.995300
0.000000
-127.998047
-103.998413
-23.999634
-51.999207
-307.995300
0.000000
-155.997620
-51.999207
-179.997253
103.998413
0.000000
-259.996033
-103.998413
-75.998840
-823.987427
-283.995667
-387.994080
-259.996033
-207.996826
-103.998413
-155.997620
-127.998047
-23.999634
-23.999634
-359.994507
0.000000
-259.996033
-179.997253
-387.994080
103.998413
-207.996826
-51.999207
-207.996826
283.995667
-307.995300
-51.999207
103.998413
-23.999634
-387.994080
-259.996033
-207.996826
-127.998047
-51.999207
-335.994873
0.000000
-207.996826
75.998840
-155.997620
-335.994873
103.998413
-75.998840
-103.998413
411.993713
0.000000
-207.996826
-103.998413
359.994507
-127.998047
-671.989746
-155.997620
-103.998413
-283.995667
-51.999207
-75.998840
0.000000
-179.997253
335.994873
-307.995300
-155.997620
75.998840
-103.998413
-155.997620
-23.999634
-307.995300
-359.994507
-259.996033
75.998840
-155.997620
-439.993286
103.998413
-155.997620
0.000000
-51.999207
-127.998047
-155.997620
-51.999207
-23.999634
-359.994507
-179.997253
-127.998047
179.997253
-259.996033
-51.999207
75.998840
-127.998047
-155.997620
-23.999634
0.000000
-75.998840
-179.997253
0.000000
-335.994873
-359.994507
127.998047
-307.995300
387.994080
-307.995300
-103.998413
-439.993286
0.000000
-335.994873
-359.994507
-207.996826
283.995667
-439.993286
-75.998840
-179.997253
-103.998413
-411.993713
23.999634
-335.994873
-231.996460
0.000000
-231.996460
-231.996460
-179.997253
-51.999207
-307.995300
-259.996033
-51.999207
-103.998413
-439.993286
-335.994873
-155.997620
-231.996460
-283.995667
-51.999207
-23.999634
-127.998047
23.999634
-103.998413
-591.990967
-259.996033
127.998047
-307.995300
-103.998413
23.999634
-283.995667
-307.995300
-127.998047
23.999634
-75.998840
51.999207
207.996826
-103.998413
0.000000
-155.997620
-283.995667
-23.999634
155.997620
51.999207
155.997620
0.000000
-207.996826
-491.992493
-259.996033
51.999207
-127.998047
-103.998413
51.999207
-51.999207
0.000000
23.999634
103.998413
-179.997253
51.999207
179.997253
-155.997620
-491.992493
0.000000
-103.998413
-51.999207
103.998413
-23.999634
179.997253
-179.997253
283.995667
-23.999634
-231.996460
127.998047
-359.994507
-463.992920
207.996826
51.999207
23.999634
0.000000
283.995667
-155.997620
-359.994507
207.996826
-155.997620
155.997620
127.998047
75.998840
-103.998413
-127.998047
179.997253
-359.994507
51.999207
51.999207
75.998840
103.998413
155.997620
23.999634
-103.998413
23.999634
127.998047
-259.996033
-387.994080
-51.999207
-207.996826
75.998840
-51.999207
51.999207
-207.996826
-103.998413
75.998840
-179.997253
-411.993713
259.996033
-259.996033
-259.996033
127.998047
155.997620
-75.998840
23.999634
231.996460
-207.996826
-1159.982300
-359.994507
-51.999207
179.997253
127.998047
103.998413
-103.998413
-23.999634
-259.996033
-103.998413
-463.992920
-23.999634
155.997620
103.998413
75.998840
307.995300
-283.995667
179.997253
-75.998840
-439.993286
-179.997253
-23.999634
103.998413
-359.994507
51.999207
307.995300
75.998840
283.995667
-103.998413
-23.999634
-127.998047
75.998840
75.998840
127.998047
-23.999634
207.996826
-51.999207
-75.998840
0.000000
23.999634
-103.998413
23.999634
-75.998840
23.999634
-103.998413
307.995300
0.000000
0.000000
103.998413
-155.997620
-155.997620
-103.998413
-75.998840
207.996826
51.999207
155.997620
179.997253
-179.997253
-207.996826
75.998840
-283.995667
231.996460
-23.999634
155.997620
-23.999634
207.996826
-103.998413
179.997253
23.999634
-23.999634
-155.997620
23.999634
-51.999207
231.996460
259.996033
359.994507
-155.997620
-799.987793
283.995667
-335.994873
103.998413
103.998413
-51.999207
-23.999634
-51.999207
955.985413
-51.999207
51.999207
335.994873
-103.998413
-207.996826
-127.998047
127.998047
-155.997620
127.998047
179.997253
-259.996033
75.998840
155.997620
-51.999207
-207.996826
103.998413
75.998840
-103.998413
259.996033
51.999207
-103.998413
127.998047
127.998047
75.998840
-207.996826
103.998413
359.994507
-103.998413
259.996033
51.999207
-155.997620
75.998840
207.996826
0.000000
1007.984619
127.998047
-75.998840
0.000000
127.998047
127.998047
-51.999207
-103.998413
-51.999207
51.999207
-127.998047
155.997620
75.998840
51.999207
23.999634
75.998840
0.000000
23.999634
155.997620
439.993286
-127.998047
231.996460
75.998840
51.999207
51.999207
307.995300
-103.998413
51.999207
127.998047
-23.999634
-75.998840
307.995300
127.998047
179.997253
155.997620
387.994080
-75.998840
103.998413
179.997253
75.998840
-75.998840
207.996826
103.998413
51.999207
127.998047
127.998047
-23.999634
103.998413
207.996826
75.998840
-75.998840
283.995667
207.996826
75.998840
103.998413
335.994873
-23.999634
-51.999207
283.995667
-23.999634
-103.998413
179.997253
155.997620
-127.998047
179.997253
259.996033
51.999207
23.999634
259.996033
75.998840
0.000000
387.994080
0.000000
51.999207
-179.997253
335.994873
103.998413
207.996826
207.996826
127.998047
-23.999634
259.996033
179.997253
23.999634
411.993713
231.996460
75.998840
127.998047
231.996460
51.999207
-103.998413
259.996033
127.998047
127.998047
439.993286
259.996033
75.998840
231.996460
231.996460
-207.996826
127.998047
207.996826
127.998047
75.998840
51.999207
567.991333
207.996826
231.996460
359.994507
207.996826
23.999634
307.995300
179.997253
155.997620
127.998047
51.999207
-75.998840
127.998047
335.994873
155.997620
-103.998413
359.994507
179.997253
51.999207
515.992126
307.995300
-23.999634
231.996460
179.997253
103.998413
-103.998413
207.996826
231.996460
0.000000
155.997620
207.996826
-75.998840
127.998047
155.997620
-51.999207
127.998047
259.996033
179.997253
23.999634
259.996033
411.993713
23.999634
179.997253
283.995667
127.998047
207.996826
231.996460
283.995667
51.999207
283.995667
359.994507
51.999207
127.998047
463.992920
51.999207
-127.998047
-23.999634
307.995300
-103.998413
259.996033
491.992493
155.997620
127.998047
259.996033
127.998047
-231.996460
127.998047
127.998047
51.999207
259.996033
359.994507
0.000000
127.998047
179.997253
-127.998047
-335.994873
155.997620
179.997253
155.997620
207.996826
411.993713
-51.999207
75.998840
259.996033
0.000000
-103.998413
207.996826
127.998047
0.000000
155.997620
155.997620
75.998840
103.998413
231.996460
0.000000
-51.999207
103.998413
259.996033
-75.998840
207.996826
259.996033
75.998840
23.999634
179.997253
23.999634
-51.999207
283.995667
179.997253
23.999634
231.996460
283.995667
-23.999634
127.998047
207.996826
179.997253
-75.998840
307.995300
359.994507
23.999634
155.997620
411.993713
23.999634
155.997620
259.996033
155.997620
-23.999634
307.995300
335.994873
179.997253
179.997253
491.992493
103.998413
283.995667
387.994080
207.996826
-23.999634
335.994873
387.994080
155.997620
259.996033
387.994080
103.998413
155.997620
307.995300
-103.998413
-75.998840
307.995300
231.996460
179.997253
387.994080
439.993286
155.997620
-51.999207
491.992493
207.996826
-23.999634
463.992920
283.995667
75.998840
179.997253
387.994080
23.999634
-207.996826
259.996033
51.999207
-23.999634
387.994080
335.994873
155.997620
335.994873
359.994507
103.998413
127.998047
259.996033
75.998840
0.000000
307.995300
259.996033
-207.996826
231.996460
283.995667
51.999207
75.998840
411.993713
155.997620
0.000000
307.995300
307.995300
155.997620
335.994873
463.992920
207.996826
207.996826
207.996826
155.997620
-155.997620
127.998047
127.998047
207.996826
387.994080
387.994080
155.997620
179.997253
335.994873
-103.998413
-51.999207
359.994507
179.997253
23.999634
179.997253
307.995300
0.000000
155.997620
207.996826
0.000000
-51.999207
-75.998840
307.995300
-23.999634
179.997253
411.993713
103.998413
127.998047
207.996826
179.997253
0.000000
515.992126
207.996826
75.998840
75.998840
283.995667
23.999634
127.998047
179.997253
51.999207
-51.999207
207.996826
207.996826
155.997620
103.998413
387.994080
51.999207
75.998840
259.996033
51.999207
-259.996033
207.996826
127.998047
-51.999207
259.996033
231.996460
103.998413
179.997253
387.994080
127.998047
0.000000
103.998413
259.996033
51.999207
207.996826
307.995300
-51.999207
207.996826
51.999207
155.997620
51.999207
359.994507
207.996826
103.998413
231.996460
179.997253
51.999207
75.998840
259.996033
127.998047
-23.999634
207.996826
75.998840
51.999207
207.996826
359.994507
-51.999207
0.000000
335.994873
51.999207
-387.994080
127.998047
231.996460
155.997620
335.994873
259.996033
23.999634
179.997253
283.995667
259.996033
-207.996826
51.999207
259.996033
23.999634
179.997253
75.998840
-75.998840
-283.995667
207.996826
-51.999207
-207.996826
207.996826
155.997620
103.998413
127.998047
127.998047
-75.998840
75.998840
259.996033
-75.998840
-103.998413
51.999207
179.997253
-23.999634
103.998413
155.997620
-51.999207
-75.998840
51.999207
-51.999207
-179.997253
155.997620
103.998413
-51.999207
51.999207
155.997620
-75.998840
-51.999207
179.997253
-75.998840
-75.998840
0.000000
103.998413
-75.998840
51.999207
155.997620
0.000000
-51.999207
75.998840
-23.999634
-491.992493
207.996826
23.999634
103.998413
-23.999634
127.998047
-103.998413
-51.999207
127.998047
23.999634
-155.997620
23.999634
127.998047
-155.997620
51.999207
231.996460
-207.996826
23.999634
75.998840
-51.999207
-155.997620
75.998840
103.998413
-51.999207
23.999634
155.997620
-75.998840
127.998047
155.997620
0.000000
-207.996826
23.999634
103.998413
-179.997253
23.999634
179.997253
-75.998840
-103.998413
-103.998413
-75.998840
-359.994507
127.998047
23.999634
-103.998413
103.998413
75.998840
-127.998047
-179.997253
0.000000
-103.998413
-75.998840
-23.999634
0.000000
-103.998413
0.000000
127.998047
-259.996033
-359.994507
0.000000
-75.998840
-207.996826
231.996460
51.999207
-359.994507
-103.998413
231.996460
-231.996460
-179.997253
75.998840
-155.997620
51.999207
75.998840
23.999634
-103.998413
155.997620
207.996826
-155.997620
-51.999207
51.999207
-103.998413
-231.996460
-23.999634
0.000000
-127.998047
-75.998840
51.999207
-207.996826
-155.997620
-127.998047
103.998413
-231.996460
51.999207
207.996826
-207.996826
51.999207
179.997253
-179.997253
-155.997620
155.997620
-127.998047
-179.997253
75.998840
51.999207
-179.997253
23.999634
127.998047
-103.998413
-179.997253
75.998840
-51.999207
-23.999634
103.998413
127.998047
-307.995300
179.997253
-155.997620
-51.999207
-179.997253
103.998413
-103.998413
-103.998413
51.999207
-103.998413
-155.997620
-75.998840
75.998840
-155.997620
-103.998413
23.999634
-155.997620
155.997620
-51.999207
0.000000
-155.997620
127.998047
155.997620
-23.999634
-51.999207
51.999207
-23.999634
155.997620
-23.999634
-51.999207
-75.998840
75.998840
411.993713
-155.997620
-103.998413
127.998047
-103.998413
-75.998840
103.998413
259.996033
-155.997620
-103.998413
0.000000
-75.998840
-127.998047
155.997620
103.998413
0.000000
207.996826
155.997620
-231.996460
23.999634
127.998047
179.997253
-359.994507
75.998840
-75.998840
-23.999634
75.998840
51.999207
-179.997253
0.000000
127.998047
-127.998047
-75.998840
179.997253
-75.998840
-127.998047
75.998840
103.998413
-179.997253
103.998413
155.997620
-207.996826
0.000000
-75.998840
23.999634
0.000000
-127.998047
179.997253
-231.996460
-75.998840
155.997620
-411.993713
-75.998840
23.999634
-103.998413
-51.999207
0.000000
51.999207
-23.999634
0.000000
75.998840
-51.999207
-283.995667
103.998413
23.999634
51.999207
0.000000
23.999634
-179.997253
-155.997620
127.998047
-127.998047
-231.996460
75.998840
-179.997253
-259.996033
155.997620
23.999634
-179.997253
-179.997253
103.998413
-127.998047
-231.996460
-75.998840
-359.994507
-207.996826
23.999634
-75.998840
-155.997620
75.998840
103.998413
-207.996826
-335.994873
-23.999634
-127.998047
-75.998840
155.997620
127.998047
-179.997253
0.000000
103.998413
-179.997253
-259.996033
0.000000
-127.998047
-259.996033
335.994873
-127.998047
-51.999207
-359.994507
0.000000
-259.996033
-387.994080
-307.995300
-335.994873
-179.997253
23.999634
-23.999634
-307.995300
-23.999634
75.998840
-207.996826
-387.994080
51.999207
-127.998047
-155.997620
-75.998840
-127.998047
-307.995300
-231.996460
283.995667
-539.991760
-179.997253
-51.999207
-103.998413
-103.998413
155.997620
-155.997620
-155.997620
0.000000
127.998047
-207.996826
-335.994873
-23.999634
0.000000
0.000000
-51.999207
231.996460
-283.995667
-179.997253
155.997620
-387.994080
-231.996460
-75.998840
-51.999207
-127.998047
283.995667
-51.999207
-155.997620
-127.998047
387.994080
-439.993286
23.999634
-103.998413
-155.997620
-207.996826
75.998840
51.999207
-335.994873
-259.996033
179.997253
-155.997620
-231.996460
51.999207
-103.998413
-179.997253
-51.999207
0.000000
-259.996033
-75.998840
127.998047
-103.998413
-359.994507
75.998840
-179.997253
-103.998413
0.000000
-103.998413
-231.996460
-155.997620
179.997253
-259.996033
-259.996033
-259.996033
23.999634
-179.997253
0.000000
51.999207
-207.996826
-127.998047
-259.996033
-231.996460
-359.994507
23.999634
-127.998047
-75.998840
75.998840
-23.999634
-259.996033
-103.998413
-103.998413
-231.996460
-411.993713
75.998840
-231.996460
-259.996033
-127.998047
-207.996826
-179.997253
-179.997253
-207.996826
-127.998047
-283.995667
0.000000
-259.996033
-127.998047
-23.999634
103.998413
-127.998047
-23.999634
0.000000
-127.998047
-207.996826
-103.998413
-179.997253
-155.997620
-179.997253
0.000000
-387.994080
-307.995300
-283.995667
-207.996826
-283.995667
23.999634
-179.997253
-23.999634
-23.999634
51.999207
-307.995300
-155.997620
-103.998413
-259.996033
-259.996033
-51.999207
-335.994873
-155.997620
75.998840
75.998840
-155.997620
-411.993713
-51.999207
0.000000
-335.994873
-75.998840
-207.996826
-231.996460
-283.995667
-23.999634
-231.996460
-127.998047
-103.998413
-283.995667
-335.994873
75.998840
-231.996460
0.000000
-103.998413
75.998840
-155.997620
-207.996826
-103.998413
-179.997253
-231.996460
-51.999207
103.998413
-207.996826
-75.998840
0.000000
-155.997620
-127.998047
-103.998413
-207.996826
-359.994507
-75.998840
-411.993713
-155.997620
51.999207
23.999634
-231.996460
-75.998840
-179.997253
-259.996033
-283.995667
-103.998413
0.000000
-283.995667
127.998047
-23.999634
-307.995300
-127.998047
-207.996826
-259.996033
-307.995300
23.999634
-51.999207
-155.997620
0.000000
23.999634
-259.996033
-155.997620
-75.998840
-439.993286
-387.994080
-463.992920
-127.998047
-127.998047
-51.999207
-51.999207
-259.996033
-127.998047
-75.998840
-207.996826
-155.997620
23.999634
-155.997620
-75.998840
0.000000
51.999207
-231.996460
-231.996460
-23.999634
-359.994507
-51.999207
-23.999634
-127.998047
-127.998047
75.998840
155.997620
-207.996826
-127.998047
-75.998840
-155.997620
-231.996460
127.998047
-179.997253
75.998840
-207.996826
103.998413
75.998840
0.000000
-51.999207
-259.996033
-231.996460
-23.999634
-23.999634
-155.997620
-23.999634
127.998047
-127.998047
-179.997253
-283.995667
-207.996826
-283.995667
-23.999634
103.998413
-231.996460
-75.998840
75.998840
-231.996460
-207.996826
-179.997253
-307.995300
-231.996460
-103.998413
-51.999207
-75.998840
-23.999634
155.997620
-307.995300
-103.998413
-51.999207
-179.997253
-259.996033
-23.999634
-155.997620
-307.995300
0.000000
103.998413
0.000000
-127.998047
-75.998840
-127.998047
-231.996460
0.000000
-127.998047
-23.999634
-103.998413
23.999634
-307.995300
-75.998840
51.999207
-259.996033
-23.999634
103.998413
-259.996033
155.997620
-23.999634
231.996460
-51.999207
-207.996826
307.995300
-179.997253
-127.998047
207.996826
-51.999207
-103.998413
-23.999634
75.998840
-207.996826
103.998413
51.999207
0.000000
-283.995667
0.000000
75.998840
0.000000
23.999634
-207.996826
51.999207
-179.997253
51.999207
23.999634
-127.998047
207.996826
-179.997253
23.999634
75.998840
127.998047
-51.999207
-23.999634
103.998413
-75.998840
-307.995300
259.996033
-51.999207
-103.998413
75.998840
103.998413
-155.997620
-23.999634
51.999207
-75.998840
-155.997620
127.998047
-103.998413
-23.999634
-103.998413
103.998413
-75.998840
155.997620
51.999207
-23.999634
-179.997253
155.997620
-51.999207
-75.998840
23.999634
207.996826
-155.997620
-51.999207
259.996033
-103.998413
-307.995300
51.999207
0.000000
-103.998413
103.998413
259.996033
-127.998047
-51.999207
-51.999207
-207.996826
-207.996826
-51.999207
155.997620
-75.998840
179.997253
207.996826
-127.998047
-103.998413
0.000000
103.998413
-231.996460
207.996826
103.998413
-51.999207
51.999207
179.997253
-75.998840
0.000000
127.998047
-103.998413
-307.995300
127.998047
259.996033
-127.998047
-335.994873
231.996460
-259.996033
-51.999207
179.997253
-23.999634
-207.996826
283.995667
51.999207
0.000000
-75.998840
155.997620
-179.997253
155.997620
231.996460
-127.998047
-127.998047
75.998840
103.998413
-75.998840
-259.996033
307.995300
-179.997253
-75.998840
103.998413
75.998840
-387.994080
179.997253
75.998840
-207.996826
51.999207
103.998413
-23.999634
75.998840
179.997253
23.999634
-103.998413
103.998413
127.998047
-23.999634
155.997620
259.996033
-51.999207
23.999634
127.998047
-231.996460
-179.997253
103.998413
307.995300
0.000000
75.998840
359.994507
-155.997620
-23.999634
491.992493
-75.998840
-231.996460
231.996460
51.999207
179.997253
-207.996826
539.991760
-231.996460
-207.996826
231.996460
0.000000
-179.997253
0.000000
23.999634
-23.999634
155.997620
179.997253
51.999207
23.999634
103.998413
-179.997253
-283.995667
491.992493
103.998413
-619.990540
207.996826
-75.998840
207.996826
179.997253
231.996460
-155.997620
-179.997253
155.997620
155.997620
75.998840
155.997620
387.994080
-23.999634
0.000000
207.996826
-283.995667
-23.999634
127.998047
127.998047
179.997253
103.998413
259.996033
-23.999634
75.998840
103.998413
23.999634
-179.997253
259.996033
231.996460
-51.999207
231.996460
231.996460
-103.998413
-259.996033
103.998413
23.999634
-259.996033
103.998413
103.998413
51.999207
179.997253
179.997253
75.998840
0.000000
179.997253
75.998840
-127.998047
179.997253
0.000000
-155.997620
-103.998413
387.994080
-75.998840
127.998047
127.998047
75.998840
-335.994873
155.997620
207.996826
-155.997620
103.998413
179.997253
-51.999207
-23.999634
179.997253
-155.997620
-207.996826
179.997253
-51.999207
-259.996033
-51.999207
75.998840
-127.998047
-75.998840
127.998047
-335.994873
-127.998047
-103.998413
51.999207
-23.999634
155.997620
359.994507
-127.998047
-103.998413
-23.999634
-127.998047
-207.996826
103.998413
-23.999634
-207.996826
0.000000
-51.999207
-179.997253
-207.996826
103.998413
-51.999207
-207.996826
127.998047
-23.999634
-335.994873
23.999634
155.997620
-155.997620
-103.998413
155.997620
-335.994873
-207.996826
0.000000
-51.999207
-127.998047
0.000000
179.997253
-103.998413
-179.997253
51.999207
-231.996460
-179.997253
231.996460
103.998413
-179.997253
23.999634
23.999634
-75.998840
-103.998413
23.999634
0.000000
-127.998047
103.998413
23.999634
-75.998840
-75.998840
491.992493
-155.997620
-307.995300
179.997253
-51.999207
-155.997620
259.996033
23.999634
0.000000
127.998047
259.996033
0.000000
-75.998840
75.998840
-155.997620
-259.996033
51.999207
75.998840
0.000000
127.998047
231.996460
-103.998413
-23.999634
103.998413
0.000000
-307.995300
51.999207
-103.998413
-643.990173
207.996826
51.999207
51.999207
-155.997620
283.995667
0.000000
-127.998047
155.997620
127.998047
-51.999207
75.998840
179.997253
-127.998047
103.998413
23.999634
-103.998413
-127.998047
155.997620
259.996033
-103.998413
51.999207
231.996460
-155.997620
-75.998840
259.996033
23.999634
-75.998840
0.000000
-51.999207
-127.998047
103.998413
51.999207
-127.998047
-75.998840
103.998413
-103.998413
-127.998047
23.999634
207.996826
-75.998840
-75.998840
23.999634
-155.997620
-155.997620
-179.997253
155.997620
-307.995300
103.998413
127.998047
-207.996826
-51.999207
23.999634
-155.997620
-103.998413
0.000000
0.000000
-179.997253
51.999207
-51.999207
-231.996460
51.999207
207.996826
-207.996826
-103.998413
103.998413
-127.998047
-259.996033
23.999634
-155.997620
-359.994507
-51.999207
23.999634
103.998413
-155.997620
75.998840
-103.998413
-155.997620
-103.998413
75.998840
-359.994507
155.997620
127.998047
-231.996460
-283.995667
75.998840
-155.997620
-259.996033
0.000000
0.000000
-127.998047
75.998840
-127.998047
-335.994873
-179.997253
0.000000
-179.997253
-307.995300
75.998840
23.999634
-155.997620
-75.998840
75.998840
-259.996033
-127.998047
0.000000
-103.998413
-283.995667
-23.999634
-23.999634
-207.996826
-283.995667
-23.999634
-207.996826
-207.996826
75.998840
-75.998840
-259.996033
-75.998840
-207.996826
-207.996826
127.998047
75.998840
-75.998840
-155.997620
51.999207
-127.998047
-231.996460
23.999634
75.998840
-231.996460
0.000000
127.998047
-207.996826
-127.998047
51.999207
-307.995300
-619.990540
103.998413
127.998047
-51.999207
0.000000
51.999207
-127.998047
-335.994873
231.996460
-179.997253
-231.996460
75.998840
-155.997620
-179.997253
23.999634
155.997620
-179.997253
-231.996460
23.999634
-127.998047
-283.995667
179.997253
-23.999634
-127.998047
-283.995667
75.998840
-207.996826
-103.998413
207.996826
-23.999634
-231.996460
0.000000
-51.999207
-387.994080
-155.997620
51.999207
-231.996460
-207.996826
-75.998840
-103.998413
-307.995300
0.000000
-75.998840
-207.996826
-23.999634
75.998840
23.999634
-491.992493
75.998840
-207.996826
-231.996460
75.998840
23.999634
-259.996033
127.998047
-179.997253
-103.998413
-231.996460
0.000000
-231.996460
-179.997253
-51.999207
23.999634
-207.996826
-75.998840
51.999207
-179.997253
-155.997620
-51.999207
-155.997620
-127.998047
-23.999634
-23.999634
-231.996460
-231.996460
75.998840
-439.993286
-23.999634
-75.998840
-75.998840
-23.999634
-207.996826
0.000000
-179.997253
-23.999634
207.996826
-103.998413
-307.995300
51.999207
-359.994507
-231.996460
23.999634
23.999634
23.999634
-103.998413
75.998840
-335.994873
-179.997253
51.999207
-103.998413
-155.997620
-23.999634
0.000000
-259.996033
-335.994873
-75.998840
-359.994507
-179.997253
23.999634
-231.996460
-75.998840
0.000000
51.999207
-207.996826
-103.998413
0.000000
-283.995667
-259.996033
-127.998047
-155.997620
-75.998840
-75.998840
-51.999207
-259.996033
-23.999634
207.996826
-207.996826
-127.998047
0.000000
-155.997620
-127.998047
-259.996033
75.998840
-335.994873
-127.998047
-75.998840
-103.998413
-283.995667
0.000000
-231.996460
-179.997253
-103.998413
-51.999207
-179.997253
-155.997620
0.000000
-259.996033
-155.997620
-51.999207
-155.997620
-103.998413
-103.998413
75.998840
-207.996826
-103.998413
-75.998840
-75.998840
-335.994873
0.000000
-307.995300
-127.998047
-103.998413
127.998047
-307.995300
-155.997620
51.999207
-335.994873
-179.997253
-51.999207
-207.996826
-335.994873
-179.997253
-127.998047
-231.996460
-179.997253
51.999207
-179.997253
-231.996460
-51.999207
-179.997253
-283.995667
-127.998047
-259.996033
-207.996826
-127.998047
-75.998840
-179.997253
-207.996826
-75.998840
-231.996460
-179.997253
0.000000
-179.997253
-359.994507
103.998413
-23.999634
-231.996460
-207.996826
-75.998840
-179.997253
-307.995300
-155.997620
-127.998047
-307.995300
-231.996460
-23.999634
-231.996460
-231.996460
-179.997253
-335.994873
-359.994507
-283.995667
-51.999207
-307.995300
-103.998413
-75.998840
-155.997620
-335.994873
-75.998840
-231.996460
-259.996033
-179.997253
-179.997253
-259.996033
-207.996826
75.998840
-259.996033
-155.997620
0.000000
-259.996033
-127.998047
0.000000
-155.997620
-179.997253
-75.998840
-23.999634
-283.995667
-463.992920
-103.998413
-387.994080
-179.997253
-207.996826
0.000000
-259.996033
-103.998413
-23.999634
-387.994080
-283.995667
-231.996460
-283.995667
-439.993286
-179.997253
-155.997620
-207.996826
-155.997620
-51.999207
-591.990967
-335.994873
-179.997253
-127.998047
-155.997620
-23.999634
-155.997620
-259.996033
-335.994873
-179.997253
-411.993713
-439.993286
-155.997620
-207.996826
-387.994080
-335.994873
-127.998047
-231.996460
-231.996460
23.999634
-643.990173
-155.997620
-127.998047
-283.995667
23.999634
-231.996460
51.999207
-283.995667
-127.998047
-127.998047
-619.990540
-259.996033
0.000000
-207.996826
-179.997253
-103.998413
-155.997620
-51.999207
-335.994873
-23.999634
-283.995667
-411.993713
-103.998413
-155.997620
-103.998413
-127.998047
179.997253
-359.994507
-155.997620
-23.999634
-307.995300
-231.996460
-75.998840
-307.995300
0.000000
0.000000
-103.998413
-463.992920
-75.998840
-103.998413
-283.995667
-335.994873
0.000000
-231.996460
-179.997253
-387.994080
103.998413
-411.993713
-103.998413
259.996033
-231.996460
-335.994873
-231.996460
-307.995300
-155.997620
51.999207
-23.999634
-259.996033
-155.997620
23.999634
-259.996033
-179.997253
23.999634
-75.998840
-207.996826
-231.996460
51.999207
-491.992493
-103.998413
75.998840
-75.998840
-207.996826
23.999634
-75.998840
-155.997620
51.999207
-75.998840
-207.996826
-127.998047
-75.998840
-259.996033
-463.992920
155.997620
-103.998413
-127.998047
0.000000
75.998840
-283.995667
-155.997620
179.997253
-307.995300
-179.997253
127.998047
-207.996826
-179.997253
23.999634
-207.996826
-463.992920
127.998047
155.997620
-75.998840
-23.999634
0.000000
-179.997253
51.999207
-51.999207
75.998840
-179.997253
51.999207
207.996826
-335.994873
-155.997620
103.998413
-51.999207
-127.998047
-127.998047
259.996033
-359.994507
0.000000
155.997620
-207.996826
-231.996460
-75.998840
-127.998047
-387.994080
-75.998840
-75.998840
-155.997620
-179.997253
155.997620
-155.997620
-259.996033
-23.999634
-127.998047
-155.997620
-51.999207
-23.999634
-231.996460
23.999634
51.999207
-127.998047
-127.998047
207.996826
-103.998413
-51.999207
-23.999634
-51.999207
-259.996033
-51.999207
207.996826
-155.997620
-387.994080
-75.998840
-23.999634
-411.993713
-75.998840
-103.998413
-75.998840
75.998840
179.997253
-179.997253
-283.995667
-51.999207
-179.997253
-23.999634
-127.998047
0.000000
-231.996460
-179.997253
-51.999207
-155.997620
-155.997620
75.998840
-127.998047
-51.999207
0.000000
-411.993713
463.992920
-515.992126
231.996460
-75.998840
-155.997620
75.998840
-103.998413
51.999207
51.999207
-75.998840
-231.996460
-155.997620
51.999207
-359.994507
-23.999634
75.998840
-103.998413
-179.997253
-179.997253
-23.999634
-103.998413
103.998413
307.995300
-127.998047
-179.997253
207.996826
0.000000
0.000000
23.999634
179.997253
-103.998413
-179.997253
-179.997253
179.997253
-411.993713
51.999207
-231.996460
155.997620
103.998413
75.998840
-283.995667
-231.996460
103.998413
-127.998047
-155.997620
51.999207
-51.999207
-75.998840
-75.998840
127.998047
-207.996826
-51.999207
75.998840
-127.998047
-259.996033
75.998840
-283.995667
0.000000
-103.998413
179.997253
-155.997620
0.000000
103.998413
-155.997620
-411.993713
387.994080
-23.999634
-51.999207
155.997620
75.998840
-127.998047
-75.998840
127.998047
-179.997253
-335.994873
-23.999634
-155.997620
-207.996826
0.000000
103.998413
-539.991760
307.995300
-75.998840
51.999207
23.999634
103.998413
-259.996033
-51.999207
51.999207
103.998413
-179.997253
0.000000
-127.998047
-75.998840
-155.997620
103.998413
-75.998840
-155.997620
-51.999207
75.998840
0.000000
51.999207
51.999207
-127.998047
-127.998047
103.998413
-75.998840
-51.999207
0.000000
-23.999634
-155.997620
-51.999207
-127.998047
-155.997620
-439.993286
75.998840
-179.997253
23.999634
23.999634
23.999634
-207.996826
-155.997620
283.995667
-231.996460
-207.996826
0.000000
-23.999634
-179.997253
-75.998840
307.995300
-359.994507
-51.999207
-23.999634
-179.997253
-283.995667
0.000000
-75.998840
-75.998840
-51.999207
-155.997620
-75.998840
-155.997620
155.997620
-51.999207
-231.996460
51.999207
-23.999634
-75.998840
0.000000
-179.997253
-155.997620
-179.997253
0.000000
-103.998413
-179.997253
75.998840
-103.998413
-103.998413
75.998840
0.000000
-127.998047
51.999207
-103.998413
-103.998413
-207.996826
-23.999634
-359.994507
-179.997253
207.996826
307.995300
-103.998413
-23.999634
-207.996826
-127.998047
-207.996826
75.998840
-103.998413
75.998840
23.999634
127.998047
-23.999634
-23.999634
-155.997620
155.997620
-411.993713
75.998840
51.999207
-23.999634
0.000000
103.998413
-127.998047
-51.999207
-231.996460
-23.999634
-75.998840
103.998413
-23.999634
-51.999207
23.999634
155.997620
-103.998413
23.999634
-75.998840
-51.999207
-207.996826
155.997620
-75.998840
-155.997620
-539.991760
411.993713
-491.992493
51.999207
335.994873
-307.995300
-155.997620
51.999207
0.000000
-51.999207
-51.999207
179.997253
-51.999207
23.999634
51.999207
-51.999207
-127.998047
103.998413
-207.996826
127.998047
-51.999207
103.998413
-127.998047
127.998047
127.998047
-103.998413
-207.996826
231.996460
155.997620
103.998413
179.997253
307.995300
-179.997253
103.998413
0.000000
-179.997253
-75.998840
127.998047
-75.998840
51.999207
-207.996826
259.996033
-231.996460
0.000000
103.998413
-335.994873
-155.997620
155.997620
0.000000
155.997620
179.997253
103.998413
-51.999207
-51.999207
-51.999207
-491.992493
-207.996826
335.994873
51.999207
0.000000
75.998840
75.998840
-127.998047
-155.997620
-51.999207
-179.997253
-259.996033
155.997620
-23.999634
-51.999207
51.999207
127.998047
-127.998047
-75.998840
-127.998047
-307.995300
-283.995667
127.998047
0.000000
23.999634
23.999634
-75.998840
-155.997620
-207.996826
-51.999207
-23.999634
-283.995667
51.999207
-75.998840
-75.998840
-231.996460
-51.999207
-103.998413
103.998413
-75.998840
-155.997620
-179.997253
127.998047
-103.998413
-259.996033
231.996460
-231.996460
-179.997253
51.999207
23.999634
-51.999207
-179.997253
103.998413
-75.998840
23.999634
51.999207
75.998840
-127.998047
51.999207
51.999207
-127.998047
-207.996826
155.997620
75.998840
-75.998840
155.997620
231.996460
-75.998840
-51.999207
-75.998840
75.998840
-335.994873
127.998047
0.000000
-23.999634
127.998047
179.997253
-51.999207
-127.998047
-75.998840
-51.999207
-155.997620
155.997620
-23.999634
259.996033
-51.999207
231.996460
-51.999207
-23.999634
75.998840
-103.998413
-283.995667
231.996460
51.999207
-75.998840
103.998413
75.998840
-75.998840
-23.999634
51.999207
-75.998840
-103.998413
-23.999634
51.999207
23.999634
179.997253
231.996460
-103.998413
-23.999634
51.999207
-51.999207
-155.997620
-51.999207
103.998413
-155.997620
155.997620
231.996460
-127.998047
23.999634
51.999207
-75.998840
-179.997253
207.996826
-75.998840
-51.999207
259.996033
259.996033
-231.996460
23.999634
51.999207
-23.999634
-179.997253
127.998047
0.000000
-51.999207
127.998047
23.999634
-387.994080
-179.997253
0.000000
-103.998413
-75.998840
259.996033
207.996826
-127.998047
23.999634
23.999634
-23.999634
23.999634
155.997620
-75.998840
-127.998047
0.000000
75.998840
155.997620
23.999634
179.997253
-103.998413
0.000000
-23.999634
-75.998840
-51.999207
179.997253
0.000000
-179.997253
155.997620
179.997253
-75.998840
127.998047
-127.998047
103.998413
-155.997620
75.998840
-179.997253
-75.998840
0.000000
155.997620
51.999207
51.999207
75.998840
-51.999207
-207.996826
259.996033
75.998840
75.998840
51.999207
387.994080
-127.998047
-179.997253
179.997253
-127.998047
-127.998047
155.997620
51.999207
-75.998840
127.998047
231.996460
-51.999207
-51.999207
0.000000
-207.996826
0.000000
0.000000
-51.999207
-23.999634
103.998413
127.998047
-231.996460
0.000000
0.000000
-179.997253
-179.997253
75.998840
23.999634
0.000000
75.998840
75.998840
-103.998413
51.999207
51.999207
-155.997620
-155.997620
75.998840
-23.999634
-439.993286
179.997253
75.998840
0.000000
51.999207
127.998047
-179.997253
-307.995300
0.000000
103.998413
-155.997620
155.997620
207.996826
-127.998047
-103.998413
51.999207
-127.998047
-387.994080
283.995667
75.998840
-75.998840
51.999207
283.995667
-207.996826
-259.996033
-23.999634
-259.996033
-127.998047
103.998413
75.998840
-127.998047
0.000000
259.996033
-231.996460
-23.999634
51.999207
-75.998840
-179.997253
75.998840
75.998840
-259.996033
51.999207
155.997620
-179.997253
0.000000
-231.996460
127.998047
-567.991333
259.996033
-155.997620
-179.997253
127.998047
155.997620
-283.995667
179.997253
75.998840
-103.998413
-155.997620
23.999634
-75.998840
-207.996826
23.999634
127.998047
-231.996460
-75.998840
0.000000
-179.997253
-231.996460
23.999634
-155.997620
-103.998413
51.999207
207.996826
-231.996460
-75.998840
-51.999207
-155.997620
-231.996460
51.999207
0.000000
-179.997253
-439.993286
127.998047
-231.996460
23.999634
207.996826
-23.999634
-207.996826
51.999207
-75.998840
51.999207
-103.998413
259.996033
-259.996033
23.999634
-179.997253
-259.996033
-307.995300
259.996033
-75.998840
-51.999207
231.996460
-75.998840
0.000000
-23.999634
127.998047
-75.998840
-179.997253
155.997620
51.999207
-51.999207
127.998047
179.997253
-207.996826
-75.998840
51.999207
75.998840
-307.995300
75.998840
0.000000
-75.998840
-75.998840
103.998413
-283.995667
-75.998840
-51.999207
-155.997620
-259.996033
23.999634
-23.999634
-103.998413
0.000000
103.998413
-127.998047
-335.994873
0.000000
-155.997620
-127.998047
-155.997620
-155.997620
0.000000
75.998840
207.996826
23.999634
-75.998840
-179.997253
-75.998840
-179.997253
127.998047
-207.996826
-179.997253
75.998840
179.997253
-179.997253
-51.999207
51.999207
-51.999207
-155.997620
307.995300
51.999207
-103.998413
-23.999634
179.997253
-103.998413
-23.999634
179.997253
-51.999207
-307.995300
-75.998840
-127.998047
23.999634
51.999207
127.998047
-231.996460
-51.999207
51.999207
-51.999207
-51.999207
207.996826
0.000000
-103.998413
-51.999207
259.996033
51.999207
127.998047
127.998047
0.000000
-207.996826
179.997253
-23.999634
-51.999207
75.998840
103.998413
-127.998047
0.000000
75.998840
-51.999207
-155.997620
75.998840
51.999207
-75.998840
207.996826
283.995667
-179.997253
23.999634
-23.999634
-51.999207
-307.995300
-23.999634
127.998047
75.998840
103.998413
231.996460
-51.999207
0.000000
103.998413
-103.998413
-127.998047
283.995667
127.998047
155.997620
-23.999634
307.995300
23.999634
103.998413
127.998047
-75.998840
-127.998047
155.997620
127.998047
-75.998840
0.000000
515.992126
0.000000
179.997253
231.996460
103.998413
51.999207
179.997253
179.997253
103.998413
75.998840
259.996033
-103.998413
23.999634
-51.999207
-75.998840
-103.998413
231.996460
127.998047
-23.999634
127.998047
179.997253
-103.998413
23.999634
51.999207
-103.998413
0.000000
155.997620
103.998413
0.000000
231.996460
179.997253
127.998047
-283.995667
259.996033
-23.999634
-23.999634
359.994507
103.998413
23.999634
179.997253
207.996826
-75.998840
0.000000
207.996826
51.999207
-103.998413
207.996826
207.996826
-51.999207
283.995667
411.993713
-23.999634
155.997620
155.997620
-23.999634
-155.997620
155.997620
51.999207
103.998413
359.994507
231.996460
103.998413
0.000000
179.997253
23.999634
23.999634
207.996826
-51.999207
-51.999207
75.998840
335.994873
51.999207
127.998047
207.996826
-75.998840
-179.997253
51.999207
127.998047
0.000000
155.997620
335.994873
-51.999207
51.999207
155.997620
75.998840
-103.998413
179.997253
51.999207
51.999207
103.998413
387.994080
75.998840
179.997253
283.995667
127.998047
-51.999207
155.997620
75.998840
75.998840
103.998413
179.997253
103.998413
127.998047
155.997620
-51.999207
-259.996033
207.996826
127.998047
51.999207
259.996033
439.993286
179.997253
51.999207
283.995667
103.998413
-23.999634
259.996033
127.998047
51.999207
207.996826
359.994507
23.999634
75.998840
127.998047
155.997620
-259.996033
259.996033
103.998413
51.999207
259.996033
307.995300
23.999634
127.998047
259.996033
75.998840
-103.998413
283.995667
103.998413
127.998047
207.996826
259.996033
-155.997620
-51.999207
155.997620
207.996826
-259.996033
439.993286
75.998840
0.000000
283.995667
359.994507
-51.999207
-259.996033
207.996826
-51.999207
-75.998840
359.994507
155.997620
103.998413
155.997620
359.994507
51.999207
103.998413
155.997620
231.996460
-155.997620
231.996460
155.997620
103.998413
75.998840
259.996033
-23.999634
127.998047
283.995667
-23.999634
-127.998047
179.997253
155.997620
103.998413
231.996460
335.994873
-23.999634
-23.999634
359.994507
155.997620
-103.998413
283.995667
207.996826
75.998840
259.996033
179.997253
51.999207
179.997253
127.998047
127.998047
-207.996826
231.996460
155.997620
-127.998047
-51.999207
491.992493
-127.998047
179.997253
127.998047
0.000000
-283.995667
207.996826
207.996826
75.998840
207.996826
207.996826
-51.999207
127.998047
283.995667
75.998840
-127.998047
283.995667
127.998047
-23.999634
179.997253
359.994507
0.000000
75.998840
207.996826
75.998840
-259.996033
231.996460
207.996826
207.996826
359.994507
359.994507
-23.999634
155.997620
283.995667
127.998047
-103.998413
283.995667
127.998047
103.998413
179.997253
231.996460
0.000000
75.998840
259.996033
23.999634
-51.999207
155.997620
179.997253
103.998413
179.997253
387.994080
-23.999634
0.000000
207.996826
179.997253
127.998047
179.997253
231.996460
0.000000
127.998047
207.996826
-207.996826
51.999207
23.999634
23.999634
-155.997620
179.997253
127.998047
0.000000
103.998413
411.993713
-23.999634
179.997253
259.996033
23.999634
-127.998047
335.994873
207.996826
-75.998840
-23.999634
387.994080
51.999207
103.998413
259.996033
127.998047
-231.996460
307.995300
51.999207
75.998840
179.997253
463.992920
23.999634
75.998840
307.995300
0.000000
-179.997253
231.996460
127.998047
51.999207
307.995300
207.996826
-75.998840
75.998840
155.997620
23.999634
0.000000
259.996033
207.996826
23.999634
127.998047
207.996826
-51.999207
75.998840
127.998047
-155.997620
-231.996460
75.998840
283.995667
51.999207
103.998413
335.994873
-155.997620
155.997620
283.995667
0.000000
-75.998840
179.997253
23.999634
155.997620
179.997253
179.997253
127.998047
23.999634
23.999634
0.000000
-127.998047
283.995667
207.996826
51.999207
207.996826
259.996033
103.998413
23.999634
231.996460
75.998840
179.997253
359.994507
127.998047
51.999207
179.997253
359.994507
-155.997620
23.999634
51.999207
231.996460
-283.995667
231.996460
283.995667
75.998840
411.993713
207.996826
-23.999634
23.999634
259.996033
103.998413
-23.999634
231.996460
179.997253
-23.999634
179.997253
307.995300
75.998840
103.998413
231.996460
307.995300
-127.998047
259.996033
231.996460
23.999634
179.997253
335.994873
463.992920
-103.998413
259.996033
155.997620
-283.995667
359.994507
75.998840
23.999634
207.996826
259.996033
75.998840
23.999634
179.997253
-127.998047
-75.998840
155.997620
-103.998413
-75.998840
307.995300
359.994507
75.998840
-103.998413
259.996033
51.999207
-51.999207
179.997253
207.996826
155.997620
231.996460
387.994080
-23.999634
51.999207
179.997253
-51.999207
-75.998840
155.997620
179.997253
75.998840
127.998047
231.996460
-23.999634
23.999634
179.997253
23.999634
-155.997620
103.998413
75.998840
-103.998413
155.997620
231.996460
-51.999207
-51.999207
231.996460
-179.997253
-207.996826
179.997253
51.999207
-207.996826
283.995667
207.996826
75.998840
127.998047
155.997620
-51.999207
-103.998413
0.000000
75.998840
-75.998840
155.997620
155.997620
-75.998840
51.999207
0.000000
127.998047
-127.998047
51.999207
51.999207
51.999207
51.999207
283.995667
-155.997620
-103.998413
359.994507
0.000000
-127.998047
155.997620
155.997620
-75.998840
179.997253
179.997253
0.000000
-51.999207
127.998047
-51.999207
-231.996460
127.998047
127.998047
-103.998413
179.997253
103.998413
-75.998840
-103.998413
155.997620
-23.999634
-155.997620
155.997620
51.999207
-75.998840
103.998413
103.998413
-127.998047
-23.999634
103.998413
23.999634
-155.997620
207.996826
-51.999207
23.999634
207.996826
155.997620
-103.998413
-75.998840
103.998413
-103.998413
-179.997253
23.999634
23.999634
-283.995667
179.997253
127.998047
-103.998413
-75.998840
-207.996826
-23.999634
-283.995667
103.998413
103.998413
-283.995667
23.999634
-259.996033
-179.997253
-155.997620
103.998413
231.996460
-155.997620
75.998840
75.998840
-23.999634
103.998413
155.997620
-155.997620
-231.996460
155.997620
103.998413
-179.997253
51.999207
23.999634
-75.998840
51.999207
103.998413
-179.997253
-155.997620
23.999634
-75.998840
-155.997620
23.999634
259.996033
-359.994507
-155.997620
51.999207
-179.997253
-51.999207
75.998840
-103.998413
-259.996033
51.999207
51.999207
-207.996826
51.999207
127.998047
-259.996033
-155.997620
0.000000
-127.998047
-335.994873
103.998413
0.000000
-179.997253
51.999207
179.997253
-155.997620
-127.998047
51.999207
0.000000
-283.995667
103.998413
51.999207
23.999634
-75.998840
179.997253
-75.998840
-387.994080
75.998840
-207.996826
-179.997253
23.999634
-127.998047
-75.998840
-231.996460
51.999207
-155.997620
-179.997253
-23.999634
-179.997253
-463.992920
127.998047
-103.998413
-259.996033
-51.999207
-127.998047
-259.996033
-259.996033
-127.998047
-179.997253
-231.996460
0.000000
23.999634
-179.997253
-103.998413
103.998413
-207.996826
-155.997620
51.999207
-127.998047
-259.996033
75.998840
-23.999634
-103.998413
-51.999207
127.998047
-283.995667
-307.995300
23.999634
-231.996460
-231.996460
75.998840
75.998840
-103.998413
51.999207
155.997620
-155.997620
-23.999634
155.997620
-155.997620
-155.997620
0.000000
0.000000
-127.998047
75.998840
127.998047
-207.996826
-127.998047
0.000000
-155.997620
-231.996460
51.999207
0.000000
-155.997620
51.999207
51.999207
-51.999207
-51.999207
23.999634
-103.998413
-231.996460
103.998413
0.000000
-155.997620
51.999207
259.996033
-75.998840
51.999207
75.998840
-75.998840
-231.996460
103.998413
0.000000
-103.998413
-23.999634
23.999634
-155.997620
-179.997253
51.999207
-23.999634
-207.996826
23.999634
103.998413
-179.997253
0.000000
51.999207
-231.996460
-75.998840
51.999207
-23.999634
-283.995667
127.998047
51.999207
-51.999207
0.000000
307.995300
-207.996826
-103.998413
51.999207
-155.997620
-283.995667
103.998413
259.996033
-155.997620
-23.999634
155.997620
0.000000
-127.998047
127.998047
-75.998840
-231.996460
103.998413
0.000000
-179.997253
-23.999634
0.000000
-179.997253
-155.997620
75.998840
-23.999634
-307.995300
51.999207
23.999634
-103.998413
-51.999207
103.998413
-23.999634
-231.996460
75.998840
0.000000
-283.995667
75.998840
75.998840
-155.997620
-23.999634
103.998413
-207.996826
-127.998047
23.999634
-127.998047
-127.998047
51.999207
231.996460
-259.996033
-23.999634
127.998047
-179.997253
-75.998840
103.998413
0.000000
-127.998047
0.000000
51.999207
-75.998840
155.997620
155.997620
-127.998047
-75.998840
127.998047
-51.999207
23.999634
23.999634
75.998840
155.997620
-75.998840
259.996033
-127.998047
-75.998840
23.999634
0.000000
51.999207
51.999207
23.999634
-103.998413
-23.999634
103.998413
-23.999634
-155.997620
-23.999634
-179.997253
-75.998840
51.999207
75.998840
-103.998413
23.999634
127.998047
-179.997253
-179.997253
23.999634
-127.998047
0.000000
103.998413
103.998413
-127.998047
127.998047
51.999207
-103.998413
-51.999207
103.998413
-23.999634
-127.998047
103.998413
127.998047
-127.998047
127.998047
231.996460
-231.996460
-103.998413
51.999207
-51.999207
155.997620
75.998840
75.998840
-103.998413
127.998047
155.997620
-179.997253
75.998840
75.998840
51.999207
-51.999207
127.998047
51.999207
-103.998413
0.000000
179.997253
-51.999207
-23.999634
127.998047
-103.998413
-75.998840
-51.999207
51.999207
-75.998840
127.998047
207.996826
-103.998413
-51.999207
51.999207
-23.999634
75.998840
103.998413
103.998413
-103.998413
51.999207
179.997253
-127.998047
-127.998047
103.998413
0.000000
-51.999207
103.998413
51.999207
-103.998413
51.999207
103.998413
-51.999207
-51.999207
23.999634
-103.998413
-103.998413
103.998413
103.998413
-103.998413
23.999634
207.996826
23.999634
-207.996826
-75.998840
0.000000
-179.997253
75.998840
103.998413
-103.998413
23.999634
127.998047
-127.998047
-307.995300
155.997620
-179.997253
0.000000
127.998047
0.000000
-207.996826
-51.999207
0.000000
-179.997253
-259.996033
0.000000
-155.997620
-51.999207
-51.999207
23.999634
-231.996460
-51.999207
179.997253
-179.997253
-207.996826
23.999634
-155.997620
-127.998047
51.999207
-51.999207
-231.996460
-127.998047
103.998413
-155.997620
-207.996826
-51.999207
-179.997253
-127.998047
0.000000
0.000000
-51.999207
127.998047
155.997620
-127.998047
-127.998047
103.998413
-127.998047
-51.999207
-23.999634
75.998840
-75.998840
23.999634
231.996460
-23.999634
-127.998047
51.999207
-51.999207
23.999634
103.998413
0.000000
-103.998413
-23.999634
127.998047
-179.997253
-155.997620
75.998840
-51.999207
179.997253
127.998047
51.999207
-75.998840
-23.999634
179.997253
-155.997620
-127.998047
127.998047
-75.998840
-75.998840
155.997620
127.998047
-155.997620
0.000000
231.996460
-103.998413
-103.998413
127.998047
-51.999207
-75.998840
103.998413
0.000000
-51.999207
0.000000
259.996033
-207.996826
-179.997253
127.998047
-103.998413
51.999207
127.998047
127.998047
-75.998840
127.998047
179.997253
-231.996460
-155.997620
51.999207
-51.999207
-51.999207
179.997253
127.998047
-103.998413
103.998413
259.996033
-75.998840
0.000000
179.997253
103.998413
51.999207
207.996826
207.996826
-23.999634
51.999207
259.996033
-75.998840
-127.998047
103.998413
0.000000
75.998840
231.996460
179.997253
-23.999634
155.997620
283.995667
-103.998413
51.999207
231.996460
0.000000
51.999207
231.996460
75.998840
0.000000
127.998047
207.996826
0.000000
-155.997620
23.999634
0.000000
-75.998840
231.996460
155.997620
-179.997253
103.998413
155.997620
-127.998047
-75.998840
307.995300
0.000000
0.000000
179.997253
127.998047
-103.998413
23.999634
179.997253
-103.998413
-231.996460
23.999634
-75.998840
-51.999207
51.999207
231.996460
127.998047
23.999634
231.996460
-75.998840
-103.998413
127.998047
-51.999207
-23.999634
103.998413
103.998413
-155.997620
75.998840
155.997620
155.997620
-155.997620
179.997253
51.999207
0.000000
127.998047
155.997620
-179.997253
-23.999634
231.996460
-103.998413
-103.998413
75.998840
0.000000
-23.999634
23.999634
155.997620
-179.997253
-75.998840
307.995300
-283.995667
-155.997620
75.998840
-75.998840
-23.999634
103.998413
51.999207
-51.999207
-103.998413
179.997253
-207.996826
-155.997620
103.998413
-127.998047
-103.998413
23.999634
51.999207
-179.997253
-51.999207
207.996826
-103.998413
-259.996033
75.998840
-103.998413
0.000000
-23.999634
0.000000
-179.997253
0.000000
127.998047
-75.998840
-179.997253
51.999207
-23.999634
-51.999207
51.999207
51.999207
-75.998840
-51.999207
103.998413
-127.998047
-75.998840
-23.999634
-51.999207
-75.998840
75.998840
51.999207
-155.997620
-51.999207
207.996826
-179.997253
-259.996033
75.998840
0.000000
-51.999207
207.996826
127.998047
-179.997253
-51.999207
127.998047
-207.996826
-207.996826
103.998413
-51.999207
-23.999634
0.000000
155.997620
-179.997253
0.000000
155.997620
-127.998047
-231.996460
75.998840
-75.998840
-103.998413
75.998840
127.998047
-179.997253
-75.998840
155.997620
-51.999207
-75.998840
75.998840
-51.999207
-23.999634
103.998413
103.998413
-103.998413
23.999634
103.998413
-127.998047
-127.998047
103.998413
-103.998413
51.999207
127.998047
127.998047
-155.997620
23.999634
127.998047
-155.997620
-75.998840
51.999207
-51.999207
-23.999634
75.998840
155.997620
0.000000
0.000000
155.997620
-127.998047
-155.997620
75.998840
23.999634
-51.999207
0.000000
127.998047
-23.999634
-23.999634
259.996033
-179.997253
-155.997620
51.999207
-75.998840
-51.999207
155.997620
75.998840
-207.996826
-75.998840
179.997253
-103.998413
-103.998413
103.998413
-51.999207
-75.998840
179.997253
127.998047
-127.998047
127.998047
179.997253
-75.998840
-103.998413
127.998047
-23.999634
-51.999207
155.997620
179.997253
-179.997253
0.000000
207.996826
-75.998840
-127.998047
103.998413
-23.999634
-23.999634
51.999207
75.998840
-155.997620
-23.999634
231.996460
-179.997253
-155.997620
103.998413
127.998047
-23.999634
103.998413
127.998047
-103.998413
0.000000
207.996826
-179.997253
-207.996826
103.998413
-23.999634
-23.999634
51.999207
0.000000
-103.998413
51.999207
207.996826
-127.998047
-155.997620
103.998413
-23.999634
-23.999634
155.997620
103.998413
-51.999207
-75.998840
103.998413
-103.998413
-179.997253
75.998840
-127.998047
-155.997620
23.999634
127.998047
-179.997253
23.999634
207.996826
-155.997620
-103.998413
0.000000
-179.997253
23.999634
-23.999634
155.997620
-127.998047
103.998413
231.996460
-127.998047
-103.998413
23.999634
-23.999634
-103.998413
51.999207
75.998840
-127.998047
-23.999634
207.996826
-127.998047
-207.996826
127.998047
-23.999634
51.999207
155.997620
0.000000
-51.999207
-75.998840
23.999634
-127.998047
-179.997253
127.998047
23.999634
51.999207
283.995667
51.999207
-51.999207
-23.999634
51.999207
-51.999207
-179.997253
179.997253
-23.999634
-51.999207
51.999207
127.998047
-127.998047
-51.999207
23.999634
-103.998413
-179.997253
75.998840
155.997620
-23.999634
207.996826
23.999634
-127.998047
0.000000
23.999634
-103.998413
-179.997253
103.998413
-51.999207
0.000000
0.000000
51.999207
-103.998413
-75.998840
0.000000
-103.998413
-307.995300
-23.999634
-75.998840
-23.999634
75.998840
103.998413
-179.997253
-51.999207
-51.999207
-127.998047
-259.996033
103.998413
23.999634
0.000000
-23.999634
103.998413
-103.998413
-103.998413
-103.998413
-127.998047
-179.997253
75.998840
-23.999634
-103.998413
103.998413
0.000000
-231.996460
-75.998840
-103.998413
-179.997253
-127.998047
283.995667
-75.998840
-51.999207
51.999207
103.998413
-207.996826
-51.999207
-23.999634
-75.998840
-179.997253
155.997620
23.999634
0.000000
51.999207
51.999207
-155.997620
-51.999207
103.998413
-75.998840
-207.996826
75.998840
-51.999207
-103.998413
0.000000
103.998413
-207.996826
75.998840
-127.998047
-51.999207
-207.996826
127.998047
-23.999634
-127.998047
0.000000
127.998047
-127.998047
-75.998840
-127.998047
-155.997620
-207.996826
127.998047
0.000000
-51.999207
23.999634
51.999207
-179.997253
23.999634
23.999634
-259.996033
-259.996033
75.998840
-51.999207
-75.998840
23.999634
75.998840
-75.998840
-75.998840
0.000000
-127.998047
-155.997620
75.998840
23.999634
51.999207
103.998413
103.998413
-103.998413
-51.999207
0.000000
-51.999207
-155.997620
51.999207
0.000000
-23.999634
127.998047
127.998047
-75.998840
51.999207
-51.999207
-103.998413
-155.997620
75.998840
23.999634
-103.998413
0.000000
207.996826
-103.998413
51.999207
-23.999634
-75.998840
-127.998047
179.997253
0.000000
-75.998840
127.998047
127.998047
-179.997253
-23.999634
23.999634
-103.998413
-259.996033
75.998840
127.998047
-23.999634
75.998840
103.998413
-231.996460
-51.999207
-103.998413
-103.998413
-127.998047
127.998047
-23.999634
-23.999634
179.997253
179.997253
-207.996826
0.000000
0.000000
-75.998840
-127.998047
155.997620
-51.999207
75.998840
179.997253
155.997620
-103.998413
103.998413
-23.999634
-51.999207
-207.996826
155.997620
23.999634
-23.999634
127.998047
207.996826
-75.998840
23.999634
75.998840
-75.998840
-179.997253
127.998047
23.999634
-23.999634
75.998840
179.997253
-103.998413
23.999634
51.999207
-75.998840
-127.998047
155.997620
179.997253
0.000000
155.997620
231.996460
-51.999207
155.997620
51.999207
0.000000
-155.997620
51.999207
23.999634
23.999634
155.997620
307.995300
-75.998840
-51.999207
75.998840
0.000000
-103.998413
155.997620
0.000000
-51.999207
23.999634
179.997253
-155.997620
75.998840
75.998840
-155.997620
-179.997253
75.998840
-51.999207
0.000000
127.998047
155.997620
-127.998047
23.999634
75.998840
-23.999634
-103.998413
103.998413
-23.999634
-51.999207
127.998047
179.997253
-75.998840
0.000000
-23.999634
-51.999207
-155.997620
179.997253
23.999634
-23.999634
127.998047
155.997620
-155.997620
-75.998840
-23.999634
-23.999634
-259.996033
127.998047
0.000000
-75.998840
179.997253
127.998047
-179.997253
-75.998840
23.999634
-75.998840
-283.995667
75.998840
51.999207
-103.998413
179.997253
127.998047
-155.997620
0.000000
0.000000
-23.999634
-179.997253
155.997620
51.999207
51.999207
127.998047
259.996033
-23.999634
-51.999207
0.000000
-155.997620
-75.998840
103.998413
-51.999207
-75.998840
127.998047
155.997620
-75.998840
0.000000
23.999634
-75.998840
-127.998047
127.998047
-51.999207
51.999207
0.000000
155.997620
-127.998047
-51.999207
0.000000
-51.999207
-259.996033
51.999207
0.000000
-51.999207
23.999634
155.997620
-127.998047
23.999634
75.998840
-103.998413
-207.996826
155.997620
-75.998840
-75.998840
23.999634
155.997620
-207.996826
-75.998840
-23.999634
-127.998047
-207.996826
51.999207
51.999207
-75.998840
103.998413
155.997620
-155.997620
-75.998840
51.999207
-23.999634
-231.996460
155.997620
23.999634
-51.999207
155.997620
155.997620
-75.998840
-51.999207
23.999634
-75.998840
-155.997620
103.998413
103.998413
0.000000
127.998047
283.995667
-51.999207
23.999634
23.999634
-23.999634
-155.997620
23.999634
-23.999634
-127.998047
75.998840
155.997620
-179.997253
-75.998840
75.998840
-75.998840
-207.996826
155.997620
23.999634
-155.997620
51.999207
75.998840
-155.997620
-51.999207
23.999634
-127.998047
-231.996460
75.998840
-23.999634
-75.998840
103.998413
207.996826
-179.997253
-75.998840
127.998047
-75.998840
-207.996826
75.998840
0.000000
-75.998840
51.999207
75.998840
-231.996460
0.000000
23.999634
-179.997253
-259.996033
75.998840
-51.999207
-103.998413
23.999634
179.997253
-127.998047
-23.999634
75.998840
-103.998413
-207.996826
-51.999207
-23.999634
-127.998047
75.998840
155.997620
-231.996460
-155.997620
-23.999634
-75.998840
-283.995667
103.998413
-51.999207
-127.998047
-23.999634
155.997620
-155.997620
-51.999207
23.999634
-23.999634
-207.996826
155.997620
23.999634
-23.999634
23.999634
179.997253
-155.997620
0.000000
51.999207
-155.997620
-259.996033
51.999207
-23.999634
-127.998047
0.000000
179.997253
-179.997253
-51.999207
23.999634
-103.998413
-259.996033
103.998413
-75.998840
-75.998840
-23.999634
75.998840
-207.996826
-23.999634
-23.999634
-231.996460
-179.997253
51.999207
-23.999634
-103.998413
-75.998840
127.998047
-207.996826
-127.998047
-23.999634
-259.996033
-179.997253
75.998840
-51.999207
-103.998413
103.998413
179.997253
-179.997253
-127.998047
0.000000
-51.999207
-155.997620
51.999207
23.999634
-155.997620
-103.998413
103.998413
-231.996460
-103.998413
0.000000
-179.997253
-283.995667
51.999207
23.999634
-231.996460
-23.999634
103.998413
-207.996826
-127.998047
23.999634
-127.998047
-259.996033
0.000000
0.000000
-127.998047
0.000000
103.998413
-231.996460
-103.998413
51.999207
-179.997253
-259.996033
-51.999207
-51.999207
-127.998047
23.999634
155.997620
-155.997620
-103.998413
75.998840
-207.996826
-307.995300
75.998840
0.000000
-51.999207
23.999634
179.997253
-103.998413
-75.998840
51.999207
-51.999207
-259.996033
75.998840
-23.999634
-127.998047
0.000000
75.998840
-103.998413
-75.998840
51.999207
-75.998840
-387.994080
23.999634
-127.998047
-155.997620
51.999207
75.998840
-179.997253
-127.998047
-23.999634
-155.997620
-259.996033
0.000000
23.999634
-75.998840
51.999207
127.998047
-155.997620
-103.998413
-23.999634
-127.998047
-259.996033
-75.998840
-51.999207
-231.996460
-23.999634
127.998047
-179.997253
-155.997620
0.000000
-75.998840
-259.996033
23.999634
23.999634
-127.998047
23.999634
23.999634
-179.997253
-179.997253
51.999207
-155.997620
-259.996033
-23.999634
-51.999207
-207.996826
-51.999207
103.998413
-207.996826
-127.998047
23.999634
-179.997253
-307.995300
23.999634
-51.999207
-103.998413
-127.998047
75.998840
-155.997620
-127.998047
-51.999207
-75.998840
-307.995300
-23.999634
51.999207
-75.998840
0.000000
179.997253
0.000000
-127.998047
51.999207
-127.998047
-259.996033
51.999207
0.000000
-75.998840
-75.998840
23.999634
-231.996460
-103.998413
-51.999207
-127.998047
-307.995300
-51.999207
-23.999634
-179.997253
0.000000
23.999634
-127.998047
-179.997253
-23.999634
-155.997620
-335.994873
-75.998840
51.999207
-207.996826
-23.999634
23.999634
-207.996826
-103.998413
75.998840
-51.999207
-231.996460
51.999207
-51.999207
-127.998047
23.999634
155.997620
-51.999207
-155.997620
51.999207
-75.998840
-207.996826
23.999634
23.999634
-179.997253
-23.999634
155.997620
-127.998047
-51.999207
23.999634
-51.999207
-259.996033
23.999634
-23.999634
-155.997620
0.000000
103.998413
-231.996460
-103.998413
207.996826
-75.998840
-231.996460
0.000000
-23.999634
-103.998413
23.999634
155.997620
-75.998840
-127.998047
75.998840
-127.998047
-155.997620
75.998840
-51.999207
-155.997620
-103.998413
75.998840
-155.997620
-155.997620
-51.999207
-179.997253
-179.997253
51.999207
-51.999207
-231.996460
51.999207
23.999634
-155.997620
-179.997253
103.998413
-155.997620
-231.996460
-51.999207
51.999207
-179.997253
-23.999634
-51.999207
-231.996460
-231.996460
0.000000
-155.997620
-259.996033
51.999207
51.999207
-179.997253
-75.998840
51.999207
-231.996460
-359.994507
-103.998413
-207.996826
-335.994873
-75.998840
-103.998413
-207.996826
-103.998413
75.998840
-155.997620
-207.996826
23.999634
-179.997253
-283.995667
0.000000
0.000000
-207.996826
-23.999634
0.000000
-127.998047
-179.997253
-23.999634
-207.996826
-259.996033
0.000000
-75.998840
-179.997253
-51.999207
51.999207
-259.996033
-179.997253
-23.999634
-103.998413
-231.996460
103.998413
51.999207
-127.998047
-51.999207
179.997253
-359.994507
-103.998413
-23.999634
-127.998047
-231.996460
-23.999634
0.000000
-179.997253
51.999207
127.998047
-155.997620
-207.996826
0.000000
-179.997253
-231.996460
51.999207
-51.999207
-127.998047
51.999207
23.999634
-207.996826
-179.997253
23.999634
-155.997620
-307.995300
0.000000
23.999634
-103.998413
0.000000
51.999207
-179.997253
-127.998047
0.000000
-75.998840
-283.995667
0.000000
0.000000
-179.997253
0.000000
75.998840
-259.996033
-127.998047
-51.999207
-155.997620
-335.994873
23.999634
-51.999207
-179.997253
-75.998840
103.998413
-51.999207
-231.996460
-23.999634
-103.998413
-283.995667
51.999207
23.999634
-207.996826
51.999207
103.998413
-155.997620
-127.998047
103.998413
-75.998840
-231.996460
155.997620
127.998047
-155.997620
23.999634
179.997253
-75.998840
-103.998413
23.999634
-127.998047
-207.996826
51.999207
75.998840
-127.998047
0.000000
155.997620
-75.998840
23.999634
23.999634
-51.999207
-231.996460
23.999634
-23.999634
-127.998047
23.999634
155.997620
-51.999207
-179.997253
103.998413
-155.997620
-207.996826
23.999634
103.998413
-103.998413
51.999207
179.997253
-207.996826
-75.998840
103.998413
-23.999634
-335.994873
127.998047
51.999207
-127.998047
-51.999207
127.998047
-155.997620
-155.997620
23.999634
-51.999207
-387.994080
-51.999207
-75.998840
-207.996826
-51.999207
75.998840
-155.997620
-207.996826
103.998413
-155.997620
-259.996033
23.999634
0.000000
-155.997620
23.999634
155.997620
0.000000
-127.998047
51.999207
-51.999207
-259.996033
0.000000
51.999207
-155.997620
23.999634
155.997620
-127.998047
-127.998047
155.997620
-207.996826
-231.996460
23.999634
75.998840
-155.997620
0.000000
103.998413
-155.997620
-207.996826
0.000000
-75.998840
-155.997620
0.000000
-23.999634
-179.997253
-23.999634
207.996826
-207.996826
-155.997620
0.000000
-155.997620
0.000000
103.998413
103.998413
-155.997620
-75.998840
103.998413
-179.997253
-207.996826
23.999634
-179.997253
-75.998840
51.999207
0.000000
-231.996460
-23.999634
127.998047
-127.998047
-155.997620
75.998840
-155.997620
0.000000
75.998840
-23.999634
-127.998047
-51.999207
155.997620
-127.998047
-155.997620
51.999207
-103.998413
-103.998413
127.998047
127.998047
-51.999207
-127.998047
103.998413
-103.998413
-155.997620
51.999207
-103.998413
-103.998413
23.999634
0.000000
-307.995300
-23.999634
103.998413
-155.997620
-155.997620
75.998840
-127.998047
-75.998840
75.998840
127.998047
-75.998840
103.998413
179.997253
-155.997620
-231.996460
207.996826
-155.997620
51.999207
75.998840
75.998840
-179.997253
51.999207
179.997253
-75.998840
-103.998413
155.997620
103.998413
-23.999634
155.997620
103.998413
-103.998413
75.998840
259.996033
-155.997620
-231.996460
-103.998413
-51.999207
-51.999207
51.999207
231.996460
-155.997620
-23.999634
259.996033
-127.998047
-103.998413
103.998413
-103.998413
-23.999634
127.998047
103.998413
-51.999207
127.998047
51.999207
-127.998047
-103.998413
127.998047
0.000000
51.999207
127.998047
103.998413
0.000000
51.999207
231.996460
51.999207
-75.998840
127.998047
23.999634
-23.999634
155.997620
179.997253
-103.998413
0.000000
231.996460
-155.997620
-179.997253
127.998047
-23.999634
-103.998413
51.999207
75.998840
-103.998413
-23.999634
75.998840
-207.996826
-231.996460
75.998840
-51.999207
-103.998413
127.998047
75.998840
-207.996826
-23.999634
155.997620
-179.997253
-259.996033
23.999634
-127.998047
-179.997253
0.000000
75.998840
-259.996033
0.000000
23.999634
-155.997620
-231.996460
23.999634
-103.998413
-51.999207
127.998047
-23.999634
-207.996826
-51.999207
51.999207
-231.996460
-259.996033
51.999207
-179.997253
-75.998840
23.999634
51.999207
-259.996033
-127.998047
155.997620
-207.996826
-231.996460
51.999207
23.999634
-75.998840
103.998413
23.999634
-155.997620
-127.998047
103.998413
-127.998047
-207.996826
103.998413
-127.998047
-75.998840
75.998840
75.998840
-231.996460
-23.999634
155.997620
-231.996460
-75.998840
51.999207
23.999634
-103.998413
75.998840
75.998840
-103.998413
-75.998840
155.997620
-231.996460
-231.996460
0.000000
-179.997253
-127.998047
75.998840
155.997620
-179.997253
-51.999207
103.998413
-155.997620
-231.996460
23.999634
-155.997620
-127.998047
-51.999207
75.998840
-207.996826
-75.998840
127.998047
-155.997620
-179.997253
0.000000
-75.998840
-127.998047
0.000000
51.999207
-155.997620
103.998413
75.998840
-207.996826
-207.996826
-23.999634
-75.998840
-127.998047
-23.999634
51.999207
-155.997620
-51.999207
155.997620
-103.998413
-155.997620
127.998047
-75.998840
0.000000
51.999207
51.999207
-127.998047
-51.999207
103.998413
-155.997620
-207.996826
23.999634
-127.998047
-51.999207
-51.999207
51.999207
-155.997620
51.999207
259.996033
-75.998840
-155.997620
103.998413
-23.999634
103.998413
23.999634
103.998413
-127.998047
51.999207
75.998840
-51.999207
-103.998413
127.998047
23.999634
23.999634
75.998840
75.998840
-127.998047
0.000000
23.999634
51.999207
-155.997620
127.998047
75.998840
51.999207
155.997620
231.996460
-51.999207
179.997253
23.999634
0.000000
-127.998047
127.998047
51.999207
0.000000
207.996826
231.996460
-75.998840
-23.999634
75.998840
-75.998840
-179.997253
179.997253
0.000000
-75.998840
127.998047
127.998047
-51.999207
75.998840
0.000000
-75.998840
-155.997620
127.998047
0.000000
0.000000
0.000000
179.997253
-51.999207
155.997620
51.999207
-51.999207
-51.999207
179.997253
51.999207
51.999207
179.997253
127.998047
-103.998413
75.998840
-23.999634
-75.998840
-103.998413
155.997620
103.998413
-23.999634
75.998840
179.997253
-127.998047
103.998413
-23.999634
-51.999207
-127.998047
231.996460
51.999207
51.999207
75.998840
127.998047
-127.998047
75.998840
103.998413
-23.999634
-179.997253
179.997253
-23.999634
0.000000
23.999634
51.999207
-103.998413
75.998840
23.999634
-23.999634
-127.998047
103.998413
0.000000
-103.998413
23.999634
155.997620
-127.998047
0.000000
-51.999207
-51.999207
-259.996033
75.998840
0.000000
-23.999634
23.999634
103.998413
-75.998840
75.998840
-51.999207
-103.998413
-155.997620
179.997253
23.999634
0.000000
155.997620
127.998047
-127.998047
75.998840
103.998413
-103.998413
-179.997253
155.997620
23.999634
0.000000
103.998413
75.998840
-75.998840
51.999207
-75.998840
-51.999207
-179.997253
155.997620
51.999207
23.999634
75.998840
307.995300
-75.998840
51.999207
23.999634
-51.999207
-155.997620
179.997253
23.999634
0.000000
51.999207
23.999634
-179.997253
23.999634
51.999207
-127.998047
-103.998413
51.999207
0.000000
-23.999634
75.998840
155.997620
-127.998047
51.999207
23.999634
-127.998047
-179.997253
75.998840
0.000000
-23.999634
23.999634
155.997620
-23.999634
51.999207
23.999634
-51.999207
-23.999634
231.996460
-51.999207
127.998047
127.998047
179.997253
-51.999207
51.999207
0.000000
-75.998840
-207.996826
75.998840
179.997253
-51.999207
127.998047
179.997253
-75.998840
-127.998047
-51.999207
-23.999634
-207.996826
103.998413
-23.999634
23.999634
23.999634
259.996033
-51.999207
23.999634
103.998413
23.999634
-51.999207
231.996460
75.998840
-23.999634
179.997253
103.998413
-75.998840
-51.999207
23.999634
-51.999207
-155.997620
179.997253
0.000000
51.999207
179.997253
283.995667
75.998840
23.999634
127.998047
-23.999634
-51.999207
155.997620
-51.999207
23.999634
103.998413
283.995667
-51.999207
103.998413
155.997620
-103.998413
-127.998047
103.998413
155.997620
0.000000
127.998047
179.997253
-23.999634
0.000000
75.998840
-51.999207
-207.996826
155.997620
75.998840
-51.999207
75.998840
155.997620
-155.997620
-51.999207
75.998840
0.000000
-231.996460
179.997253
-127.998047
-75.998840
179.997253
207.996826
-155.997620
51.999207
75.998840
0.000000
-127.998047
155.997620
51.999207
-75.998840
103.998413
127.998047
-103.998413
0.000000
51.999207
-103.998413
-179.997253
103.998413
-23.999634
-103.998413
103.998413
155.997620
-103.998413
-207.996826
-23.999634
-103.998413
-155.997620
155.997620
51.999207
-51.999207
51.999207
231.996460
-51.999207
0.000000
103.998413
-103.998413
-335.994873
51.999207
23.999634
-23.999634
23.999634
283.995667
-127.998047
0.000000
75.998840
-23.999634
-231.996460
103.998413
75.998840
-75.998840
75.998840
127.998047
-155.997620
-51.999207
127.998047
-51.999207
-179.997253
103.998413
51.999207
-75.998840
75.998840
231.996460
-207.996826
-23.999634
75.998840
-179.997253
-23.999634
0.000000
23.999634
-75.998840
75.998840
127.998047
-127.998047
-103.998413
51.999207
-103.998413
-155.997620
23.999634
-75.998840
-103.998413
103.998413
155.997620
-127.998047
-23.999634
51.999207
-103.998413
-231.996460
103.998413
75.998840
-127.998047
51.999207
307.995300
-103.998413
-51.999207
51.999207
-103.998413
-179.997253
127.998047
0.000000
-75.998840
103.998413
155.997620
-179.997253
-75.998840
23.999634
-103.998413
-127.998047
75.998840
23.999634
-75.998840
179.997253
207.996826
-75.998840
155.997620
23.999634
-23.999634
-127.998047
207.996826
51.999207
-23.999634
127.998047
231.996460
-23.999634
23.999634
155.997620
-75.998840
-155.997620
155.997620
75.998840
-51.999207
103.998413
179.997253
-51.999207
-103.998413
75.998840
23.999634
-51.999207
103.998413
103.998413
0.000000
155.997620
283.995667
-103.998413
75.998840
103.998413
51.999207
-127.998047
127.998047
103.998413
-51.999207
103.998413
207.996826
-23.999634
75.998840
103.998413
-23.999634
-75.998840
127.998047
103.998413
23.999634
179.997253
259.996033
-127.998047
51.999207
103.998413
-51.999207
-127.998047
75.998840
51.999207
-103.998413
75.998840
231.996460
-127.998047
-51.999207
103.998413
-103.998413
-231.996460
179.997253
75.998840
-127.998047
51.999207
155.997620
-103.998413
-23.999634
-75.998840
-51.999207
-283.995667
127.998047
51.999207
-127.998047
75.998840
207.996826
-103.998413
0.000000
75.998840
-75.998840
-283.995667
75.998840
103.998413
-51.999207
179.997253
179.997253
-23.999634
51.999207
103.998413
-23.999634
-127.998047
179.997253
51.999207
-103.998413
103.998413
283.995667
-231.996460
-23.999634
103.998413
-75.998840
-179.997253
103.998413
103.998413
0.000000
103.998413
179.997253
51.999207
-23.999634
75.998840
-75.998840
-127.998047
127.998047
75.998840
-103.998413
155.997620
231.996460
-23.999634
-23.999634
75.998840
-51.999207
-231.996460
75.998840
51.999207
-103.998413
103.998413
207.996826
-127.998047
0.000000
127.998047
-75.998840
-207.996826
283.995667
103.998413
23.999634
127.998047
259.996033
-23.999634
51.999207
103.998413
51.999207
-103.998413
207.996826
51.999207
23.999634
103.998413
155.997620
-75.998840
0.000000
155.997620
23.999634
-179.997253
207.996826
127.998047
0.000000
103.998413
231.996460
23.999634
75.998840
103.998413
75.998840
-127.998047
155.997620
127.998047
51.999207
75.998840
231.996460
-155.997620
23.999634
127.998047
-23.999634
-179.997253
127.998047
127.998047
-23.999634
127.998047
283.995667
-75.998840
0.000000
103.998413
23.999634
-155.997620
283.995667
0.000000
51.999207
51.999207
259.996033
-127.998047
0.000000
127.998047
-23.999634
-179.997253
75.998840
23.999634
-75.998840
75.998840
335.994873
-127.998047
-75.998840
103.998413
-23.999634
-231.996460
127.998047
51.999207
-75.998840
51.999207
179.997253
-23.999634
0.000000
127.998047
-23.999634
-231.996460
51.999207
23.999634
-127.998047
75.998840
207.996826
-103.998413
-51.999207
23.999634
-127.998047
-231.996460
51.999207
75.998840
-127.998047
75.998840
155.997620
-179.997253
-75.998840
-23.999634
51.999207
-259.996033
75.998840
51.999207
-103.998413
51.999207
155.997620
-179.997253
-103.998413
155.997620
-51.999207
-207.996826
-51.999207
-23.999634
-75.998840
127.998047
155.997620
-179.997253
-103.998413
75.998840
-75.998840
-179.997253
75.998840
-23.999634
-75.998840
51.999207
127.998047
-283.995667
-51.999207
51.999207
-75.998840
-179.997253
75.998840
51.999207
-103.998413
103.998413
207.996826
-51.999207
0.000000
127.998047
-103.998413
-231.996460
23.999634
51.999207
-75.998840
23.999634
75.998840
-155.997620
-155.997620
51.999207
-127.998047
-155.997620
103.998413
51.999207
51.999207
23.999634
207.996826
-23.999634
-23.999634
51.999207
-23.999634
-207.996826
155.997620
0.000000
-75.998840
51.999207
75.998840
-127.998047
-23.999634
75.998840
-51.999207
-155.997620
103.998413
0.000000
-207.996826
-75.998840
51.999207
-155.997620
-103.998413
75.998840
-75.998840
-127.998047
0.000000
23.999634
-231.996460
0.000000
127.998047
-155.997620
-51.999207
0.000000
-103.998413
-207.996826
51.999207
-51.999207
-155.997620
23.999634
127.998047
-155.997620
-103.998413
103.998413
0.000000
-179.997253
127.998047
0.000000
-127.998047
51.999207
179.997253
-103.998413
-231.996460
75.998840
-75.998840
-207.996826
51.999207
51.999207
-155.997620
51.999207
103.998413
-75.998840
-127.998047
75.998840
-231.996460
-335.994873
103.998413
0.000000
-103.998413
0.000000
75.998840
-179.997253
-127.998047
23.999634
-103.998413
-259.996033
23.999634
-127.998047
-259.996033
-23.999634
103.998413
-75.998840
-51.999207
51.999207
-127.998047
-179.997253
127.998047
51.999207
-155.997620
0.000000
127.998047
-103.998413
-23.999634
103.998413
-103.998413
-207.996826
179.997253
75.998840
-103.998413
0.000000
127.998047
-155.997620
-127.998047
-51.999207
-179.997253
-259.996033
51.999207
23.999634
-127.998047
-51.999207
75.998840
-155.997620
-51.999207
103.998413
-51.999207
-231.996460
51.999207
-51.999207
-231.996460
127.998047
75.998840
-231.996460
-103.998413
0.000000
-179.997253
-231.996460
51.999207
51.999207
-103.998413
23.999634
127.998047
-259.996033
-127.998047
51.999207
-179.997253
-259.996033
-23.999634
0.000000
-127.998047
-103.998413
51.999207
-127.998047
-127.998047
0.000000
-283.995667
-231.996460
23.999634
23.999634
-207.996826
23.999634
23.999634
-75.998840
-155.997620
0.000000
-127.998047
-127.998047
75.998840
51.999207
-179.997253
23.999634
155.997620
-127.998047
-207.996826
23.999634
-103.998413
-103.998413
23.999634
23.999634
0.000000
51.999207
179.997253
-51.999207
-103.998413
0.000000
-127.998047
-155.997620
-23.999634
23.999634
-155.997620
-51.999207
103.998413
-179.997253
-127.998047
155.997620
-103.998413
-259.996033
75.998840
0.000000
-103.998413
-51.999207
75.998840
-179.997253
-207.996826
0.000000
-75.998840
-335.994873
23.999634
0.000000
-155.997620
23.999634
127.998047
-103.998413
-155.997620
23.999634
-103.998413
-387.994080
75.998840
23.999634
-155.997620
51.999207
75.998840
-207.996826
-127.998047
0.000000
-75.998840
-259.996033
51.999207
-51.999207
-127.998047
75.998840
23.999634
-127.998047
-155.997620
0.000000
-155.997620
-259.996033
75.998840
23.999634
-103.998413
51.999207
127.998047
-103.998413
-103.998413
75.998840
-103.998413
-307.995300
23.999634
0.000000
-75.998840
23.999634
155.997620
-103.998413
-75.998840
23.999634
-127.998047
-283.995667
155.997620
-23.999634
-155.997620
-23.999634
23.999634
-103.998413
-179.997253
-51.999207
-155.997620
-231.996460
103.998413
103.998413
-231.996460
23.999634
103.998413
-207.996826
-155.997620
0.000000
-51.999207
-307.995300
75.998840
-51.999207
-259.996033
-103.998413
103.998413
-231.996460
-207.996826
23.999634
-155.997620
-335.994873
0.000000
-51.999207
-179.997253
-51.999207
127.998047
-155.997620
-179.997253
-75.998840
-155.997620
-307.995300
0.000000
0.000000
-179.997253
-75.998840
103.998413
-207.996826
-75.998840
23.999634
-127.998047
-231.996460
103.998413
51.999207
-51.999207
127.998047
207.996826
-51.999207
-51.999207
75.998840
-75.998840
-127.998047
103.998413
155.997620
-23.999634
-75.998840
127.998047
-23.999634
-335.994873
-51.999207
-51.999207
-207.996826
-127.998047
75.998840
-75.998840
231.996460
515.992126
-259.996033
-75.998840
-127.998047
-103.998413
-307.995300
1263.980713
0.000000
-463.992920
0.000000
463.992920
-103.998413
-207.996826
-155.997620
-127.998047
-283.995667
179.997253
127.998047
-207.996826
-103.998413
515.992126
103.998413
-155.997620
-619.990540
23.999634
-387.994080
-75.998840
-103.998413
-23.999634
359.994507
75.998840
-23.999634
-259.996033
-103.998413
-103.998413
-23.999634
23.999634
-259.996033
-207.996826
-51.999207
-75.998840
1339.979553
231.996460
-75.998840
-75.998840
-179.997253
-23.999634
23.999634
-179.997253
0.000000
387.994080
-51.999207
-103.998413
155.997620
411.993713
-491.992493
-23.999634
-155.997620
-103.998413
-51.999207
335.994873
-155.997620
-155.997620
-179.997253
491.992493
-515.992126
439.993286
359.994507
-307.995300
51.999207
103.998413
-207.996826
-359.994507
-103.998413
-307.995300
-539.991760
-155.997620
-51.999207
-259.996033
-127.998047
-23.999634
-463.992920
-231.996460
-179.997253
-307.995300
-387.994080
-207.996826
-259.996033
-335.994873
-23.999634
-75.998840
491.992493
-207.996826
-127.998047
591.990967
-335.994873
-23.999634
-23.999634
-307.995300
-23.999634
-155.997620
-23.999634
-155.997620
-75.998840
-75.998840
-259.996033
51.999207
-103.998413
-207.996826
-207.996826
127.998047
-103.998413
-307.995300
-179.997253
-155.997620
51.999207
75.998840
179.997253
-539.991760
-903.986206
359.994507
-127.998047
51.999207
-1291.980286
335.994873
-1059.983826
359.994507
103.998413
23.999634
591.990967
-491.992493
23.999634
-155.997620
-103.998413
-207.996826
207.996826
-335.994873
-155.997620
75.998840
155.997620
179.997253
-155.997620
-179.997253
-411.993713
283.995667
-231.996460
539.991760
51.999207
-231.996460
283.995667
231.996460
-283.995667
-643.990173
-23.999634
-359.994507
51.999207
259.996033
567.991333
-539.991760
259.996033
-491.992493
775.988159
-359.994507
75.998840
515.992126
127.998047
155.997620
-259.996033
695.989380
-155.997620
335.994873
-179.997253
103.998413
179.997253
-411.993713
-75.998840
23.999634
23.999634
0.000000
-695.989380
179.997253
-491.992493
-747.988586
539.991760
-927.985840
307.995300
-591.990967
411.993713
155.997620
307.995300
-591.990967
-179.997253
127.998047
23.999634
-259.996033
-1135.982666
307.995300
127.998047
-207.996826
-387.994080
-515.992126
-75.998840
259.996033
335.994873
359.994507
-179.997253
283.995667
439.993286
-411.993713
-231.996460
-207.996826
-387.994080
-1959.970093
1831.972046
283.995667
0.000000
-1315.979919
103.998413
-359.994507
103.998413
-179.997253
75.998840
-103.998413
179.997253
-307.995300
-283.995667
723.988953
-491.992493
-51.999207
-155.997620
-75.998840
-127.998047
-103.998413
155.997620
-179.997253
127.998047
207.996826
-23.999634
-259.996033
0.000000
359.994507
-51.999207
-491.992493
-747.988586
231.996460
-619.990540
-515.992126
-127.998047
1187.981873
-335.994873
179.997253
515.992126
-695.989380
155.997620
-51.999207
-23.999634
-51.999207
179.997253
-903.986206
0.000000
439.993286
-411.993713
51.999207
-259.996033
463.992920
-103.998413
-463.992920
775.988159
-539.991760
-103.998413
335.994873
-643.990173
-179.997253
-127.998047
155.997620
-979.985046
231.996460
-155.997620
411.993713
127.998047
-439.993286
-127.998047
-75.998840
103.998413
-155.997620
-1263.980713
231.996460
-207.996826
-231.996460
127.998047
179.997253
-155.997620
-155.997620
-155.997620
51.999207
-283.995667
335.994873
-307.995300
-231.996460
75.998840
207.996826
-283.995667
-723.988953
491.992493
-207.996826
-619.990540
51.999207
1831.972046
179.997253
-283.995667
799.987793
-387.994080
-283.995667
75.998840
0.000000
411.993713
207.996826
307.995300
259.996033
-643.990173
1211.981506
-723.988953
51.999207
207.996826
-643.990173
955.985413
-207.996826
207.996826
283.995667
439.993286
851.987000
231.996460
-23.999634
1523.976746
515.992126
387.994080
1007.984619
75.998840
491.992493
231.996460
307.995300
-75.998840
-747.988586
-155.997620
-23.999634
463.992920
619.990540
307.995300
-1059.983826
-127.998047
207.996826
283.995667
439.993286
439.993286
51.999207
-359.994507
671.989746
179.997253
283.995667
259.996033
643.990173
103.998413
-207.996826
387.994080
387.994080
335.994873
-591.990967
-955.985413
619.990540
-283.995667
207.996826
127.998047
155.997620
411.993713
-491.992493
747.988586
0.000000
207.996826
463.992920
51.999207
335.994873
51.999207
103.998413
-51.999207
-515.992126
-335.994873
-207.996826
-75.998840
-491.992493
-23.999634
-179.997253
103.998413
-179.997253
1859.971619
-51.999207
5135.921631
823.987427
-75.998840
179.997253
-387.994080
619.990540
75.998840
-1367.979126
-359.994507
-1339.979553
307.995300
-515.992126
-2139.967346
-75.998840
51.999207
643.990173
-539.991760
-463.992920
335.994873
-127.998047
695.989380
-695.989380
-903.986206
-179.997253
-231.996460
-491.992493
-231.996460
-1007.984619
643.990173
-1135.982666
-463.992920
-955.985413
1675.974426
-723.988953
-179.997253
-23.999634
51.999207
51.999207
259.996033
103.998413
619.990540
307.995300
643.990173
75.998840
103.998413
-875.986633
-231.996460
103.998413
-387.994080
-307.995300
-75.998840
-51.999207
-155.997620
103.998413
-439.993286
-283.995667
-231.996460
-75.998840
231.996460
335.994873
-723.988953
-127.998047
-515.992126
643.990173
411.993713
955.985413
567.991333
207.996826
411.993713
515.992126
231.996460
307.995300
875.986633
1083.983459
75.998840
359.994507
-359.994507
695.989380
539.991760
335.994873
723.988953
1059.983826
723.988953
283.995667
671.989746
567.991333
207.996826
567.991333
359.994507
643.990173
-155.997620
567.991333
335.994873
155.997620
619.990540
231.996460
259.996033
0.000000
-1059.983826
-259.996033
-359.994507
-103.998413
1367.979126
-1907.970886
335.994873
23.999634
-155.997620
-671.989746
-75.998840
-1315.979919
-411.993713
0.000000
411.993713
-179.997253
463.992920
-127.998047
-387.994080
335.994873
-75.998840
-179.997253
-23.999634
-155.997620
-335.994873
-23.999634
-723.988953
-259.996033
491.992493
-103.998413
359.994507
-463.992920
-643.990173
-231.996460
799.987793
179.997253
231.996460
-619.990540
-23.999634
-1391.978760
-491.992493
-335.994873
259.996033
-23.999634
515.992126
-875.986633
-155.997620
259.996033
103.998413
-23.999634
-23.999634
307.995300
-1031.984253
23.999634
155.997620
51.999207
75.998840
75.998840
-671.989746
-463.992920
-359.994507
619.990540
-51.999207
515.992126
-179.997253
-207.996826
411.993713
335.994873
-307.995300
-979.985046
-51.999207
51.999207
-103.998413
-491.992493
-155.997620
-643.990173
307.995300
51.999207
-823.987427
127.998047
75.998840
-619.990540
-491.992493
-207.996826
-23.999634
-567.991333
-491.992493
307.995300
23.999634
75.998840
75.998840
-23.999634
-75.998840
-491.992493
-23.999634
-23.999634
-359.994507
-515.992126
-207.996826
-591.990967
23.999634
567.991333
-75.998840
-259.996033
259.996033
-307.995300
283.995667
23.999634
23.999634
-179.997253
411.993713
259.996033
643.990173
515.992126
179.997253
51.999207
103.998413
-231.996460
-643.990173
127.998047
-387.994080
51.999207
-155.997620
207.996826
155.997620
-567.991333
-335.994873
155.997620
-179.997253
51.999207
-103.998413
51.999207
-283.995667
75.998840
51.999207
1419.978333
-463.992920
207.996826
-567.991333
-463.992920
231.996460
-1107.983093
-439.993286
51.999207
-23.999634
-387.994080
51.999207
127.998047
-463.992920
-695.989380
-259.996033
-231.996460
-955.985413
-335.994873
127.998047
23.999634
-439.993286
51.999207
515.992126
-1007.984619
51.999207
23.999634
-1187.981873
259.996033
-127.998047
-335.994873
-359.994507
-335.994873
-875.986633
-875.986633
567.991333
-955.985413
-927.985840
-411.993713
-335.994873
-283.995667
-23.999634
539.991760
-1495.977173
-851.987000
-927.985840
-515.992126
-775.988159
103.998413
-51.999207
103.998413
-359.994507
0.000000
-671.989746
1443.977966
-387.994080
-2707.958679
179.997253
-747.988586
75.998840
-283.995667
-127.998047
-1031.984253
-463.992920
-619.990540
-567.991333
-591.990967
-875.986633
-695.989380
-155.997620
-411.993713
-103.998413
-359.994507
-695.989380
-539.991760
-307.995300
-979.985046
103.998413
-671.989746
-103.998413
-155.997620
387.994080
-515.992126
539.991760
-335.994873
0.000000
439.993286
903.986206
-231.996460
567.991333
-695.989380
411.993713
387.994080
567.991333
823.987427
439.993286
539.991760
207.996826
155.997620
387.994080
591.990967
695.989380
-179.997253
231.996460
671.989746
539.991760
103.998413
-591.990967
103.998413
515.992126
1031.984253
-283.995667
463.992920
411.993713
359.994507
103.998413
-259.996033
23.999634
259.996033
411.993713
0.000000
23.999634
75.998840
-75.998840
179.997253
-1159.982300
-23.999634
-231.996460
-411.993713
-875.986633
207.996826
127.998047
1471.977539
-335.994873
-259.996033
723.988953
1575.975952
155.997620
-747.988586
903.986206
-51.999207
387.994080
-75.998840
463.992920
-387.994080
-1367.979126
823.987427
179.997253
51.999207
51.999207
103.998413
-23.999634
-567.991333
-179.997253
-463.992920
643.990173
-387.994080
439.993286
1315.979919
643.990173
-207.996826
695.989380
0.000000
23.999634
179.997253
411.993713
307.995300
567.991333
-231.996460
335.994873
103.998413
127.998047
1263.980713
-411.993713
207.996826
411.993713
979.985046
103.998413
3431.947632
359.994507
-155.997620
775.988159
747.988586
1367.979126
463.992920
539.991760
775.988159
-359.994507
411.993713
671.989746
259.996033
515.992126
0.000000
903.986206
103.998413
387.994080
491.992493
-23.999634
-875.986633
799.987793
307.995300
127.998047
359.994507
-1059.983826
-591.990967
-259.996033
-259.996033
335.994873
875.986633
127.998047
0.000000
259.996033
179.997253
-283.995667
307.995300
-75.998840
-979.985046
-411.993713
0.000000
207.996826
-387.994080
155.997620
567.991333
-307.995300
799.987793
799.987793
-539.991760
823.987427
51.999207
-1031.984253
-955.985413
207.996826
-1107.983093
-723.988953
-723.988953
-231.996460
-1007.984619
515.992126
259.996033
-283.995667
-851.987000
-1083.983459
23.999634
127.998047
0.000000
231.996460
-231.996460
-307.995300
-155.997620
127.998047
-283.995667
231.996460
671.989746
155.997620
127.998047
-23.999634
-567.991333
-567.991333
23.999634
51.999207
387.994080
-515.992126
103.998413
-207.996826
-307.995300
0.000000
-723.988953
-1419.978333
23.999634
-567.991333
-591.990967
-1339.979553
799.987793
-411.993713
-231.996460
179.997253
-387.994080
-127.998047
-359.994507
51.999207
-439.993286
-23.999634
-179.997253
-51.999207
-903.986206
283.995667
-75.998840
-875.986633
-491.992493
979.985046
75.998840
-103.998413
-387.994080
-23.999634
-591.990967
307.995300
-1339.979553
-539.991760
127.998047
-439.993286
-1623.975220
-387.994080
51.999207
-539.991760
-1007.984619
359.994507
799.987793
-283.995667
127.998047
-127.998047
155.997620
-747.988586
-335.994873
-231.996460
-51.999207
-335.994873
-643.990173
-591.990967
-2011.969299
-619.990540
-359.994507
-23.999634
103.998413
-307.995300
-335.994873
-23.999634
-231.996460
51.999207
-903.986206
-463.992920
-515.992126
-103.998413
-387.994080
-567.991333
-643.990173
127.998047
-335.994873
-567.991333
-875.986633
-695.989380
-1831.972046
-799.987793
259.996033
-1031.984253
-1031.984253
-515.992126
-591.990967
51.999207
-955.985413
-439.993286
-1443.977966
-439.993286
-359.994507
-75.998840
-955.985413
103.998413
-619.990540
-259.996033
-103.998413
207.996826
-539.991760
-127.998047
-155.997620
-439.993286
-799.987793
-207.996826
-463.992920
-539.991760
259.996033
-179.997253
-51.999207
-179.997253
359.994507
-155.997620
1059.983826
-387.994080
-231.996460
-127.998047
-127.998047
-75.998840
0.000000
-103.998413
0.000000
0.000000
-823.987427
23.999634
-1007.984619
-231.996460
-75.998840
179.997253
-515.992126
-127.998047
127.998047
-411.993713
-439.993286
-231.996460
-591.990967
-231.996460
51.999207
-231.996460
155.997620
-463.992920
207.996826
-231.996460
-747.988586
-387.994080
1263.980713
-591.990967
51.999207
-1367.979126
-179.997253
-875.986633
-23.999634
-207.996826
-671.989746
231.996460
-359.994507
-103.998413
-23.999634
-51.999207
23.999634
-723.988953
-643.990173
-643.990173
-307.995300
103.998413
-591.990967
-903.986206
-259.996033
539.991760
-259.996033
-359.994507
-103.998413
-411.993713
-411.993713
-179.997253
-259.996033
-1007.984619
51.999207
903.986206
-591.990967
-463.992920
-231.996460
-491.992493
103.998413
-439.993286
-231.996460
-387.994080
-439.993286
-799.987793
-775.988159
-283.995667
-207.996826
-283.995667
-591.990967
-591.990967
-231.996460
-619.990540
207.996826
-359.994507
-567.991333
-619.990540
-695.989380
-359.994507
-231.996460
23.999634
-515.992126
387.994080
103.998413
231.996460
335.994873
-903.986206
-591.990967
-775.988159
2659.959412
387.994080
359.994507
-75.998840
-955.985413
-103.998413
-75.998840
-439.993286
-307.995300
23.999634
491.992493
23.999634
231.996460
903.986206
283.995667
207.996826
-619.990540
-51.999207
-155.997620
75.998840
-283.995667
439.993286
-903.986206
-259.996033
-75.998840
-671.989746
307.995300
515.992126
231.996460
1599.975586
-1083.983459
207.996826
-103.998413
103.998413
439.993286
-515.992126
591.990967
307.995300
231.996460
-283.995667
207.996826
-23.999634
-51.999207
-51.999207
-283.995667
103.998413
-463.992920
-359.994507
231.996460
-1107.983093
-283.995667
103.998413
155.997620
103.998413
-619.990540
335.994873
-567.991333
-259.996033
75.998840
-927.985840
439.993286
-619.990540
-387.994080
-515.992126
-207.996826
-643.990173
-591.990967
-207.996826
-591.990967
-75.998840
-723.988953
-671.989746
-1059.983826
-463.992920
-619.990540
-307.995300
-747.988586
-491.992493
-799.987793
-955.985413
-411.993713
-231.996460
207.996826
-439.993286
75.998840
-775.988159
-903.986206
127.998047
-515.992126
-775.988159
-231.996460
591.990967
-307.995300
439.993286
-619.990540
-439.993286
-283.995667
231.996460
-671.989746
567.991333
-259.996033
-103.998413
567.991333
2063.968506
259.996033
-619.990540
-359.994507
515.992126
-539.991760
1159.982300
-2115.967712
-179.997253
103.998413
-491.992493
515.992126
-1367.979126
-1239.981079
-359.994507
-723.988953
-1471.977539
-463.992920
-1987.969666
695.989380
-671.989746
-539.991760
-335.994873
-567.991333
51.999207
-259.996033
-463.992920
259.996033
-515.992126
-23.999634
-439.993286
-539.991760
103.998413
-411.993713
103.998413
1107.983093
-539.991760
-207.996826
-359.994507
-875.986633
411.993713
-335.994873
-799.987793
671.989746
-439.993286
-491.992493
-439.993286
-51.999207
-207.996826
23.999634
-231.996460
-283.995667
-1547.976379
-591.990967
-1291.980286
-179.997253
-1083.983459
-619.990540
-463.992920
775.988159
-155.997620
127.998047
127.998047
-179.997253
155.997620
207.996826
-671.989746
619.990540
-155.997620
-1523.976746
-1159.982300
-1495.977173
-2115.967712
-1727.973633
-1651.974792
-1339.979553
-775.988159
-875.986633
-823.987427
-775.988159
-643.990173
-851.987000
-671.989746
-75.998840
-1367.979126
-695.989380
307.995300
-927.985840
-307.995300
-591.990967
-1779.972839
-619.990540
-979.985046
75.998840
-491.992493
-75.998840
-747.988586
-1107.983093
-463.992920
-1083.983459
-775.988159
-747.988586
-851.987000
-491.992493
-851.987000
-491.992493
-671.989746
-1059.983826
-1135.982666
-875.986633
-747.988586
-283.995667
-463.992920
-1059.983826
-567.991333
231.996460
-155.997620
-875.986633
-1495.977173
-259.996033
747.988586
-1367.979126
-439.993286
103.998413
-1059.983826
799.987793
-335.994873
307.995300
851.987000
-75.998840
-1135.982666
-411.993713
-567.991333
-23.999634
103.998413
-23.999634
0.000000
-207.996826
307.995300
0.000000
-179.997253
307.995300
-439.993286
695.989380
231.996460
-307.995300
23.999634
-259.996033
-851.987000
-127.998047
-463.992920
-51.999207
-463.992920
-103.998413
411.993713
387.994080
259.996033
-179.997253
103.998413
127.998047
-439.993286
-283.995667
903.986206
103.998413
491.992493
75.998840
-155.997620
75.998840
179.997253
155.997620
-179.997253
-695.989380
307.995300
-103.998413
-231.996460
307.995300
103.998413
-75.998840
439.993286
515.992126
-1107.983093
-155.997620
-851.987000
259.996033
359.994507
927.985840
567.991333
-23.999634
75.998840
491.992493
-515.992126
283.995667
671.989746
359.994507
387.994080
955.985413
439.993286
-359.994507
491.992493
231.996460
439.993286
515.992126
619.990540
1059.983826
335.994873
411.993713
0.000000
51.999207
491.992493
851.987000
747.988586
23.999634
259.996033
491.992493
103.998413
231.996460
75.998840
671.989746
439.993286
155.997620
463.992920
539.991760
359.994507
179.997253
207.996826
51.999207
439.993286
51.999207
359.994507
0.000000
387.994080
155.997620
231.996460
-259.996033
643.990173
207.996826
75.998840
387.994080
439.993286
-51.999207
103.998413
1059.983826
723.988953
127.998047
75.998840
179.997253
411.993713
-23.999634
-283.995667
283.995667
-359.994507
671.989746
-155.997620
-1495.977173
515.992126
-307.995300
411.993713
387.994080
179.997253
103.998413
207.996826
-927.985840
-127.998047
-103.998413
723.988953
619.990540
-51.999207
491.992493
1187.981873
747.988586
-127.998047
359.994507
387.994080
-903.986206
231.996460
179.997253
23.999634
775.988159
695.989380
539.991760
0.000000
103.998413
1575.975952
-539.991760
1907.970886
-179.997253
-51.999207
-1367.979126
463.992920
127.998047
127.998047
-23.999634
259.996033
643.990173
0.000000
207.996826
51.999207
207.996826
103.998413
259.996033
1315.979919
-51.999207
283.995667
-875.986633
-591.990967
-671.989746
387.994080
-1339.979553
-1523.976746
-1159.982300
-1187.981873
-1211.981506
-1471.977539
-1755.973206
-1907.970886
-1523.976746
-1807.972412
-1523.976746
-1443.977966
-1575.975952
-2631.959839
-747.988586
-1187.981873
-2527.961426
-1159.982300
-1807.972412
-1831.972046
-1727.973633
-1291.980286
-1987.969666
-2039.968872
-2323.964539
-1547.976379
-2011.969299
-1807.972412
-723.988953
-1755.973206
-1495.977173
-695.989380
-1495.977173
-2295.964966
-1263.980713
-1391.978760
-1031.984253
-1599.975586
-1779.972839
-1703.973999
-1419.978333
-1419.978333
-1755.973206
-1471.977539
-1391.978760
-1495.977173
-2115.967712
-1059.983826
-1779.972839
-1339.979553
-1291.980286
-1339.979553
-1727.973633
-671.989746
-1523.976746
-1547.976379
-1007.984619
-1675.974426
-799.987793
-1135.982666
-1391.978760
-823.987427
-1107.983093
-955.985413
-799.987793
-51.999207
-1059.983826
-747.988586
-1059.983826
-1135.982666
-1031.984253
-515.992126
-567.991333
-955.985413
-283.995667
-411.993713
-695.989380
-51.999207
-671.989746
-799.987793
-775.988159
-1471.977539
-75.998840
-823.987427
75.998840
-207.996826
-439.993286
-307.995300
-307.995300
-439.993286
179.997253
-103.998413
0.000000
127.998047
515.992126
-155.997620
-259.996033
-207.996826
387.994080
307.995300
-307.995300
671.989746
-823.987427
155.997620
695.989380
723.988953
387.994080
619.990540
823.987427
307.995300
1211.981506
-179.997253
591.990967
491.992493
643.990173
491.992493
359.994507
643.990173
283.995667
-799.987793
539.991760
359.994507
-307.995300
387.994080
1367.979126
927.985840
539.991760
695.989380
723.988953
-1107.983093
439.993286
307.995300
875.986633
411.993713
359.994507
775.988159
155.997620
207.996826
283.995667
491.992493
259.996033
51.999207
207.996826
-155.997620
927.985840
259.996033
51.999207
103.998413
439.993286
179.997253
155.997620
747.988586
463.992920
-335.994873
1391.978760
259.996033
51.999207
823.987427
359.994507
127.998047
-643.990173
283.995667
-103.998413
-335.994873
23.999634
-75.998840
-75.998840
643.990173
567.991333
-723.988953
1159.982300
75.998840
307.995300
1059.983826
103.998413
-591.990967
-283.995667
155.997620
491.992493
335.994873
359.994507
155.997620
231.996460
-463.992920
-439.993286
0.000000
-283.995667
567.991333
283.995667
155.997620
23.999634
207.996826
-539.991760
411.993713
0.000000
231.996460
75.998840
359.994507
359.994507
23.999634
359.994507
-307.995300
-155.997620
-387.994080
335.994873
335.994873
51.999207
259.996033
-75.998840
307.995300
335.994873
-207.996826
539.991760
-155.997620
179.997253
671.989746
-23.999634
-695.989380
439.993286
-259.996033
103.998413
-23.999634
-23.999634
179.997253
