0.000000
0.000000
0.000000
0.000000
0.000000
0.000000
0.000000
0.000000
0.000000
0.000000
0.000000
0.000000
0.000000
0.000000
0.000000
0.000000
0.000000
0.000000
0.000000
0.000000
0.000000
0.000000
0.000000
0.000000
0.000000
0.000000
0.000000
0.000000
0.000000
0.000000
0.000000
0.000000
0.000000
0.000000
0.000000
0.000000
0.000000
0.000000
0.000000
0.000000
0.000000
0.000000
0.000000
0.000000
0.000000
0.000000
0.000000
0.000000
0.000000
0.000000
0.000000
0.000000
0.000000
0.000000
0.000000
0.000000
0.000000
0.000000
0.000000
0.000000
0.000000
0.000000
0.000000
0.000000
0.000000
0.000000
0.000000
0.000000
0.000000
0.000000
0.000000
0.000000
0.000000
0.000000
0.000000
0.000000
0.000000
0.000000
0.000000
0.000000
0.000000
0.000000
0.000000
0.000000
0.000000
0.000000
0.000000
0.000000
0.000000
0.000000
0.000000
0.000000
0.000000
0.000000
0.000000
0.000000
0.000000
0.000000
0.000000
0.000000
0.000000
0.000000
0.000000
0.000000
0.000000
0.000000
0.000000
0.000000
0.000000
0.000000
0.000000
0.000000
0.000000
0.000000
0.000000
0.000000
0.000000
0.000000
0.000000
0.000000
0.000000
0.000000
0.000000
0.000000
0.000000
0.000000
0.000000
0.000000
0.000000
0.000000
0.000000
0.000000
0.000000
0.000000
0.000000
0.000000
0.000000
0.000000
0.000000
0.000000
0.000000
0.000000
0.000000
0.000000
0.000000
0.000000
0.000000
0.000000
0.000000
0.000000
0.000000
0.000000
0.000000
0.000000
0.000000
0.000000
0.000000
0.000000
0.000000
0.000000
0.000000
0.000000
0.000000
0.000000
0.000000
0.000000
0.000000
0.000000
0.000000
0.000000
0.000000
0.000000
0.000000
0.000000
0.000000
0.000000
0.000000
0.000000
0.000000
0.000000
0.000000
0.000000
0.000000
0.000000
0.000000
0.000000
0.000000
0.000000
0.000000
0.000000
0.000000
0.000000
0.000000
0.000000
0.000000
0.000000
0.000000
0.000000
0.000000
0.000000
0.000000
0.000000
0.000000
0.000000
0.000000
0.000000
0.000000
0.000000
0.000000
0.000000
0.000000
0.000000
0.000000
0.000000
0.000000
0.000000
0.000000
0.000000
0.000000
0.000000
0.000000
0.000000
0.000000
0.000000
0.000000
0.000000
0.000000
0.000000
0.000000
0.000000
0.000000
0.000000
0.000000
0.000000
0.000000
0.000000
0.000000
0.000000
0.000000
0.000000
0.000000
0.000000
0.000000
0.000000
0.000000
0.000000
0.000000
0.000000
0.000000
0.000000
0.000000
0.000000
0.000000
0.000000
0.000000
0.000000
0.000000
0.000000
0.000000
0.000000
0.000000
0.000000
0.000000
0.000000
0.000000
0.000000
0.000000
0.000000
0.000000
0.000000
0.000000
0.000000
0.000000
0.000000
0.000000
0.000000
0.000000
0.000000
0.000000
0.000000
0.000000
0.000000
0.000000
0.000000
0.000000
0.000000
0.000000
0.000000
0.000000
0.000000
0.000000
0.000000
0.000000
0.000000
0.000000
0.000000
0.000000
0.000000
0.000000
0.000000
0.000000
0.000000
0.000000
0.000000
0.000000
0.000000
0.000000
0.000000
0.000000
0.000000
0.000000
0.000000
0.000000
0.000000
0.000000
0.000000
0.000000
0.000000
0.000000
0.000000
0.000000
0.000000
0.000000
0.000000
0.000000
0.000000
0.000000
0.000000
0.000000
0.000000
0.000000
0.000000
0.000000
0.000000
0.000000
0.000000
0.000000
0.000000
0.000000
0.000000
0.000000
0.000000
0.000000
0.000000
0.000000
0.000000
0.000000
0.000000
0.000000
0.000000
0.000000
0.000000
0.000000
0.000000
0.000000
0.000000
0.000000
0.000000
0.000000
0.000000
0.000000
0.000000
0.000000
0.000000
0.000000
0.000000
0.000000
0.000000
0.000000
0.000000
0.000000
0.000000
0.000000
0.000000
0.000000
0.000000
0.000000
0.000000
0.000000
0.000000
0.000000
0.000000
0.000000
0.000000
0.000000
0.000000
0.000000
0.000000
0.000000
0.000000
0.000000
0.000000
0.000000
0.000000
0.000000
0.000000
0.000000
0.000000
0.000000
0.000000
-1259.905395
-1623.435410
-1713.072948
-1409.301292
-1080.630319
-2360.455167
-2778.763678
-1264.885258
-1528.818009
-1364.482523
-886.415653
-1752.911854
-1977.005699
-1653.314590
-1872.428571
-1215.086626
-1374.442249
-2619.408055
-1125.449088
-298.791793
-791.798252
-219.113982
-995.972644
-562.724544
587.623860
94.617401
298.791793
-348.590426
-1165.287994
-398.389058
-1075.650456
-2026.804331
-1155.328267
-2066.643237
-2763.824088
-1239.985942
-956.133739
-1678.213906
-1822.629939
-1708.093085
-3017.797112
-3082.535334
-891.395517
-756.939210
-2051.703647
-1030.831687
-632.442629
-2997.877660
-3610.400836
-1972.025836
2066.643237
8575.324468
14635.818009
16812.018237
10248.558511
-836.617021
-4895.205547
-2614.428191
-1015.892097
-169.315350
-229.073708
-1175.247720
-1125.449088
-796.778116
-1110.509498
-1299.744301
-801.757979
-871.476064
-697.180851
189.234802
-214.134119
-861.516337
-667.301672
-1235.006079
-1374.442249
-657.341945
-144.416033
24.899316
-577.664134
-119.516717
488.026596
-54.778495
59.758359
398.389058
-39.838906
74.697948
468.107143
-224.093845
154.375760
1424.240881
428.268237
-901.355243
652.362082
1767.851444
801.757979
1115.489362
1922.227204
1723.032675
1713.072948
1718.052812
1832.589666
2211.059271
2689.126140
3207.031915
2933.139438
2992.897796
3799.635638
3685.098784
3436.105623
4008.789894
4242.843465
4168.145517
3968.950988
3540.682751
2161.260638
2240.938450
3714.977964
2733.944909
1952.106383
1708.093085
1160.308131
129.476444
-1284.804711
-74.697948
-214.134119
-1299.744301
-547.784954
-1040.791413
-1130.428951
-1249.945669
-1643.354863
-1389.381839
-1518.858283
-931.234422
-1239.985942
-926.254559
-278.872340
-1414.281155
-986.012918
-876.455927
-1249.945669
-946.174012
-756.939210
-766.898936
-2046.723784
-1369.462386
-194.214666
-1459.099924
-1449.140198
-811.717705
-1225.046353
-1085.610182
-612.523176
-577.664134
-1205.126900
-1244.965805
-751.959347
-1374.442249
-1623.435410
-602.563450
-771.878799
-1757.891717
-990.992781
-966.093465
-2360.455167
-1812.670213
-771.878799
-1075.650456
-1389.381839
-966.093465
-1309.704027
-1797.730623
-1010.912234
-1000.952508
-1414.281155
-1165.287994
-1040.791413
-1289.784574
-1568.656915
-1314.683891
-1538.777736
-1742.952128
-971.073328
-1045.771277
-2021.824468
-941.194149
438.227964
-174.295213
-776.858663
-293.811930
-378.469605
-876.455927
328.670973
478.066869
-54.778495
244.013298
328.670973
-826.657295
-2146.321049
-1364.482523
-1070.670593
-1742.952128
-1797.730623
-1792.750760
-2001.905015
-1683.193769
-1100.549772
-1508.898556
-2320.616261
-1937.166793
-1419.261018
-1767.851444
-1578.616641
-1414.281155
-1693.153495
-3132.333967
-4078.507979
-2320.616261
1105.529635
7036.546733
13664.744681
17090.890578
12389.899696
1827.609802
-3774.736322
-3321.568769
-1339.583207
-1110.509498
-1937.166793
-831.637158
-861.516337
-1837.569529
-1050.751140
-273.892477
-811.717705
-1493.958967
-672.281535
-328.670973
-1120.469225
-378.469605
-44.818769
-1299.744301
-1488.979103
-537.825228
-64.738222
-253.973024
-14.939590
134.456307
-881.435790
-522.885638
-29.879179
-423.288374
572.684271
388.429331
174.295213
856.536474
-139.436170
-448.187690
602.563450
1000.952508
532.845365
363.530015
1289.784574
2260.857903
1638.375000
1359.502660
1917.247340
1952.106383
1817.650076
2704.065729
3012.817249
1947.126520
2923.179711
3665.179331
3266.790274
3864.373860
4073.528116
3411.206307
4048.628799
5293.594605
4566.534574
3854.414134
3122.374240
2539.730243
3241.890957
3221.971505
1932.186930
637.422492
846.576748
906.335106
-507.946049
-1718.052812
-886.415653
169.315350
-512.925912
-1782.791033
-1668.254179
-796.778116
-1299.744301
-1742.952128
-1140.388678
-906.335106
-1608.495821
-1742.952128
-1533.797872
-1120.469225
-308.751520
-756.939210
-1952.106383
-1329.623480
-946.174012
-1668.254179
-1140.388678
-717.100304
-1424.240881
-1817.650076
-597.583587
-756.939210
-1957.086246
-1105.529635
-627.462766
-1598.536094
-1299.744301
-971.073328
-1523.838146
-1424.240881
-1060.710866
-1488.979103
-2111.462006
-1439.180471
-1917.247340
-1947.126520
-1160.308131
-1942.146657
-1698.133359
-1195.167173
-1394.361702
-1075.650456
-1379.422112
-1508.898556
-1264.885258
-1673.234043
-1857.488982
-1483.999240
-1822.629939
-1977.005699
-1359.502660
-1728.012538
-1653.314590
-1095.569909
-1000.952508
-1737.972264
-2504.871201
-1952.106383
-1200.147036
-502.966185
-293.811930
-786.818389
-383.449468
-49.798632
-831.637158
-448.187690
567.704407
428.268237
-393.409195
-453.167553
-273.892477
-1055.731003
-1782.791033
-1777.811170
-1469.059650
-1767.851444
-1747.931991
-1170.267857
-1777.811170
-1797.730623
-1548.737462
-2235.958587
-2275.797492
-1827.609802
-1832.589666
-2116.441869
-1329.623480
-1235.006079
-1981.985562
-2888.320669
-3884.293313
-1344.563070
4895.205547
11543.322948
16712.420973
15547.132979
6588.359043
-3107.434650
-5517.688450
-2250.898176
-677.261398
-612.523176
-906.335106
-976.053191
-657.341945
-1857.488982
-2056.683511
-876.455927
-1190.187310
-891.395517
14.939590
-677.261398
-921.274696
-423.288374
-1409.301292
-1533.797872
-164.335486
-79.677812
-841.596884
-647.382219
159.355623
-393.409195
-841.596884
244.013298
468.107143
-154.375760
353.570289
697.180851
298.791793
483.046733
-34.859043
-517.905775
562.724544
1344.563070
751.959347
572.684271
1678.213906
1981.985562
273.892477
-184.254939
1553.717325
2445.112842
2813.622720
3376.347264
3117.394377
2898.280395
3396.266717
3221.971505
2888.320669
3192.092325
3461.004939
3894.253040
4262.762918
4631.272796
3769.756459
2579.569149
3162.213146
3042.696429
2684.146277
2325.596125
2181.180091
1613.475684
-552.764818
-836.617021
-234.053571
-707.140578
-448.187690
-219.113982
-956.133739
-1195.167173
-766.898936
-1299.744301
-2076.602964
-1414.281155
-1244.965805
-1230.026216
-567.704407
-1479.019377
-1932.186930
-826.657295
-547.784954
-1025.851824
-1150.348404
-552.764818
-886.415653
-1469.059650
-532.845365
-647.382219
-1090.590046
-483.046733
-1035.811550
-1354.522796
-1225.046353
-1244.965805
-786.818389
-1210.106763
-1140.388678
-517.905775
-971.073328
-1269.865122
-1483.999240
-1573.636778
-966.093465
-1205.126900
-1259.905395
-966.093465
-956.133739
-1005.932371
-1274.844985
-1732.992401
-2574.589286
-1772.831307
-826.657295
-756.939210
-981.033055
-1633.395137
-1623.435410
-1414.281155
-1728.012538
-1349.542933
-657.341945
-1030.831687
-1384.401976
-1239.985942
-1145.368541
-1469.059650
-1230.026216
-836.617021
-1648.334726
-1299.744301
-587.623860
-1244.965805
-313.731383
1339.583207
906.335106
4.979863
557.744681
229.073708
-921.274696
-816.697568
-1090.590046
-1384.401976
-1254.925532
-921.274696
-1165.287994
-2305.676672
-1996.925152
-1120.469225
-1877.408435
-2196.119681
-1155.328267
-1528.818009
-1678.213906
-1065.690729
-2514.830927
-2948.079027
-1010.912234
-896.375380
-3137.313830
-3824.534954
-84.657675
5159.138298
9964.706307
15900.703267
15163.683511
5149.178571
-2559.649696
-3829.514818
-2460.052432
-1683.193769
-951.153875
-547.784954
-1384.401976
-1180.227584
-921.274696
-1424.240881
-821.677432
-547.784954
-1912.267477
-1523.838146
-94.617401
-692.200988
-781.838526
-149.395897
-836.617021
-896.375380
-119.516717
-557.744681
-1140.388678
-263.932751
542.805091
-169.315350
-572.684271
373.489742
-74.697948
-318.711246
732.039894
582.643997
64.738222
154.375760
717.100304
403.368921
388.429331
1145.368541
468.107143
542.805091
1802.710486
1792.750760
1254.925532
1528.818009
2211.059271
1837.569529
1857.488982
2793.703267
2609.448328
2728.965046
3829.514818
3939.071809
3426.145897
3734.897416
3988.870441
3157.233283
2768.803951
4412.158815
4571.514438
3062.615881
3017.797112
2868.401216
1937.166793
1384.401976
1294.764438
682.241261
-239.033435
-94.617401
94.617401
-1693.153495
-1892.348024
-353.570289
-861.516337
-776.858663
-1244.965805
-1957.086246
-1175.247720
-1175.247720
-612.523176
-816.697568
-1055.731003
-687.221125
-1000.952508
-961.113602
-1120.469225
-981.033055
-1060.710866
-806.737842
-587.623860
-1698.133359
-1080.630319
-1239.985942
-2494.911474
-751.959347
184.254939
-1085.610182
-1025.851824
-458.147416
-796.778116
-921.274696
-941.194149
-1035.811550
-1523.838146
-1284.804711
-931.234422
-1996.925152
-1792.750760
-497.986322
-871.476064
-1503.918693
-1160.308131
-1533.797872
-1892.348024
-1384.401976
-1130.428951
-1523.838146
-1399.341565
-1175.247720
-1060.710866
-811.717705
-1498.938830
-1324.643617
-876.455927
-1424.240881
-841.596884
-911.314970
-2823.582447
-2191.139818
-49.798632
-323.691109
-727.060030
154.375760
-129.476444
-318.711246
557.744681
253.973024
-677.261398
144.416033
164.335486
-1170.267857
-1160.308131
-1439.180471
-1837.569529
-1882.388298
-1493.958967
-1379.422112
-2161.260638
-1419.261018
-1195.167173
-1977.005699
-1175.247720
-1543.757599
-2460.052432
-1518.858283
-1583.596505
-2235.958587
-1797.730623
-1807.690350
-2858.441489
-3291.689590
637.422492
6812.452888
11224.611702
15591.951748
12728.530395
1847.529255
-3899.232903
-3321.568769
-1912.267477
-1563.677052
-1050.751140
-468.107143
-1220.066489
-1055.731003
-737.019757
-2270.817629
-2031.784195
-657.341945
-1095.569909
-916.294833
-632.442629
-582.643997
-712.120441
-871.476064
74.697948
-283.852204
-1210.106763
-692.200988
-448.187690
-453.167553
298.791793
54.778495
-428.268237
-234.053571
-333.650836
-79.677812
448.187690
248.993161
-398.389058
-229.073708
547.784954
786.818389
672.281535
473.087006
836.617021
831.637158
781.838526
2046.723784
1977.005699
1324.643617
1937.166793
2270.817629
1907.287614
1991.945289
2748.884498
2768.803951
3321.568769
4008.789894
3276.750000
3057.636018
4088.467705
4018.749620
3142.293693
3680.118921
3102.454787
2435.153116
2589.528875
2181.180091
1897.327888
906.335106
393.409195
607.543313
-308.751520
-816.697568
-732.039894
-1120.469225
-667.301672
-672.281535
-1852.509119
-1474.039514
-901.355243
-697.180851
-956.133739
-1399.341565
-776.858663
-1150.348404
-1628.415274
-1200.147036
-672.281535
-891.395517
-901.355243
-881.435790
-2076.602964
-1683.193769
-478.066869
-756.939210
-1304.724164
-761.919073
-856.536474
-2270.817629
-1284.804711
-199.194529
-756.939210
-921.274696
-532.845365
-1215.086626
-1638.375000
-393.409195
-861.516337
-2011.864742
-1349.542933
-801.757979
-1339.583207
-1180.227584
-966.093465
-1110.509498
-1404.321429
-1837.569529
-1797.730623
-1708.093085
-1279.824848
-1020.871960
-1115.489362
-1728.012538
-1812.670213
-856.536474
-936.214286
-801.757979
-1259.905395
-1892.348024
-602.563450
-1249.945669
-1887.368161
-373.489742
-268.912614
-702.160714
-388.429331
642.402356
0.000000
-1215.086626
527.865502
1050.751140
-861.516337
-746.979483
-144.416033
-1319.663754
-1678.213906
-1239.985942
-2061.663374
-2714.025456
-1673.234043
-881.435790
-1713.072948
-1847.529255
-1130.428951
-1653.314590
-1986.965426
-1339.583207
-1648.334726
-1986.965426
-1369.462386
-1693.153495
-2240.938450
-3336.508359
-1703.113222
4198.024696
9337.243541
14700.556231
15158.703647
6239.768617
-1459.099924
-4686.051292
-4586.454027
-517.905775
318.711246
-1010.912234
-428.268237
-313.731383
-1120.469225
-1723.032675
-1439.180471
-826.657295
-672.281535
-727.060030
-428.268237
-1339.583207
-1772.831307
-109.556991
-727.060030
-1235.006079
189.234802
-49.798632
-204.174392
677.261398
567.704407
-946.174012
-697.180851
836.617021
512.925912
253.973024
642.402356
348.590426
89.637538
313.731383
806.737842
473.087006
179.275076
1294.764438
936.214286
29.879179
886.415653
1205.126900
1454.120061
2569.609422
2733.944909
2046.723784
2310.656535
3087.515198
3371.367401
3157.233283
3192.092325
4008.789894
3565.582067
2928.159574
4347.420593
4860.346505
3401.246581
3411.206307
3929.112082
3047.676292
3152.253419
2574.589286
1020.871960
1160.308131
1095.569909
473.087006
537.825228
-129.476444
-268.912614
-891.395517
-1324.643617
343.610562
-69.718085
-1100.549772
-557.744681
-1005.932371
-1483.999240
-916.294833
-896.375380
-761.919073
-433.248100
-403.368921
-946.174012
-1095.569909
-308.751520
-1035.811550
-1593.556231
-413.328647
-831.637158
-1329.623480
-149.395897
-507.946049
-1603.515957
-756.939210
-278.872340
-1399.341565
-1200.147036
-722.080167
-1050.751140
-931.234422
-537.825228
-89.637538
-881.435790
-1095.569909
-547.784954
-1120.469225
-1409.301292
-986.012918
-667.301672
-976.053191
-1394.361702
-1339.583207
-1140.388678
-1728.012538
-1060.710866
-821.677432
-2225.998860
-796.778116
-44.818769
-1488.979103
-866.496201
-712.120441
-1508.898556
-786.818389
-961.113602
-1095.569909
-423.288374
-1020.871960
-1065.690729
-712.120441
-1344.563070
-453.167553
527.865502
353.570289
1075.650456
1200.147036
219.113982
29.879179
184.254939
-582.643997
-537.825228
-343.610562
-1459.099924
-1429.220745
-1020.871960
-2071.623100
-1962.066109
-896.375380
-1225.046353
-1518.858283
-1210.106763
-1040.791413
-1419.261018
-1120.469225
-737.019757
-1399.341565
-1239.985942
-995.972644
-1991.945289
-2908.240122
-2559.649696
582.643997
6424.023556
12170.785714
16463.427812
13201.617401
2335.555851
-3142.293693
-2669.206687
-2808.642857
-1553.717325
-428.268237
-1020.871960
-771.878799
-189.234802
-527.865502
-776.858663
-408.348784
-413.328647
-966.093465
-413.328647
154.375760
-1025.851824
-1165.287994
-358.550152
-358.550152
-836.617021
-258.952888
413.328647
-263.932751
154.375760
497.986322
-209.154255
24.899316
552.764818
-219.113982
-79.677812
921.274696
-114.536854
-453.167553
717.100304
1005.932371
796.778116
951.153875
1205.126900
981.033055
861.516337
1583.596505
1822.629939
1593.556231
2629.367781
2669.206687
1967.045973
2460.052432
2933.139438
2833.542173
3192.092325
3784.696049
3132.333967
3465.984802
5004.762538
4312.561550
2913.219985
4078.507979
4790.628419
4023.729483
3749.837006
3456.025076
1991.945289
1195.167173
1688.173632
1185.207447
363.530015
253.973024
428.268237
-423.288374
-1434.200608
-921.274696
-751.959347
-1354.522796
-637.422492
-263.932751
-1010.912234
-1090.590046
-801.757979
-926.254559
-990.992781
-612.523176
-776.858663
-1513.878419
-791.798252
-174.295213
-1389.381839
-781.838526
-194.214666
-1239.985942
-1170.267857
-607.543313
-348.590426
-856.536474
-796.778116
-781.838526
-1703.113222
-961.113602
-189.234802
-776.858663
-756.939210
-637.422492
-1090.590046
-1264.885258
-961.113602
-796.778116
-1055.731003
-1010.912234
-751.959347
-1354.522796
-1389.381839
-423.288374
-602.563450
-1523.838146
-1055.731003
-622.482903
-1319.663754
-1010.912234
-1434.200608
-2245.918313
-886.415653
-388.429331
-881.435790
-781.838526
-552.764818
-497.986322
-1454.120061
-1583.596505
-951.153875
-1180.227584
-761.919073
-119.516717
-194.214666
-612.523176
-204.174392
234.053571
-64.738222
642.402356
1135.408815
607.543313
84.657675
184.254939
49.798632
-413.328647
-637.422492
-1259.905395
-1568.656915
-1220.066489
-1015.892097
-961.113602
-1065.690729
-1693.153495
-1643.354863
-821.677432
-1344.563070
-1638.375000
-1170.267857
-1239.985942
-976.053191
-712.120441
-1339.583207
-1991.945289
-2470.012158
-2131.381459
2913.219985
9715.713146
14511.321429
16393.709726
10721.645517
592.603723
-3909.192629
-1867.448708
-1369.462386
-2081.582827
-89.637538
368.509878
-911.314970
-1339.583207
-737.019757
-204.174392
-727.060030
-597.583587
-64.738222
-428.268237
-154.375760
64.738222
-587.623860
-707.140578
-214.134119
-139.436170
-358.550152
433.248100
811.717705
-722.080167
-687.221125
886.415653
662.321809
517.905775
562.724544
159.355623
169.315350
572.684271
552.764818
234.053571
1055.731003
1449.140198
926.254559
1215.086626
1762.871581
1598.536094
1638.375000
1812.670213
1309.704027
1996.925152
2918.199848
2614.428191
2569.609422
3286.709726
3361.407675
2539.730243
3271.770137
4820.507599
4496.816489
3321.568769
3600.441109
4506.776216
4003.810030
4048.628799
4785.648556
3216.991641
2211.059271
3067.595745
2031.784195
995.972644
1150.348404
493.006459
-378.469605
-174.295213
104.577128
-682.241261
-677.261398
-478.066869
-1150.348404
-1239.985942
-1344.563070
-1409.301292
-1095.569909
-1040.791413
-522.885638
-1010.912234
-1454.120061
-398.389058
-363.530015
-971.073328
-831.637158
-741.999620
-931.234422
-896.375380
-791.798252
-771.878799
-592.603723
-931.234422
-856.536474
-622.482903
-791.798252
-737.019757
-976.053191
-557.744681
-831.637158
-2011.864742
-1379.422112
-378.469605
-582.643997
-1145.368541
-981.033055
-1050.751140
-1673.234043
-876.455927
-478.066869
-1000.952508
-1339.583207
-916.294833
-672.281535
-1230.026216
-971.073328
-1125.449088
-1439.180471
-971.073328
-562.724544
-712.120441
-1289.784574
-1389.381839
-1160.308131
-1200.147036
-926.254559
-981.033055
-1454.120061
-692.200988
-483.046733
-1752.911854
-811.717705
403.368921
-343.610562
-587.623860
104.577128
1244.965805
557.744681
-577.664134
493.006459
338.630699
-741.999620
-473.087006
-652.362082
-1070.670593
-1105.529635
-1439.180471
-1902.307751
-1981.985562
-1444.160334
-1409.301292
-1952.106383
-1284.804711
-1394.361702
-2380.374620
-1668.254179
-931.234422
-1304.724164
-1329.623480
-1020.871960
-2534.750380
-3695.058511
-2435.153116
1563.677052
7803.445669
13844.019757
17364.783055
12499.456687
1767.851444
-4073.528116
-4148.226064
-2186.159954
-59.758359
-144.416033
-1130.428951
-488.026596
119.516717
-1648.334726
-1563.677052
-4.979863
-806.737842
-836.617021
4.979863
-89.637538
-756.939210
-881.435790
-951.153875
-1309.704027
-39.838906
1030.831687
-4.979863
-408.348784
418.308511
303.771657
-981.033055
-527.865502
567.704407
-403.368921
9.959726
1294.764438
522.885638
712.120441
1389.381839
-587.623860
-209.154255
1538.777736
1070.670593
1259.905395
1578.616641
1598.536094
1742.952128
1892.348024
1867.448708
1942.146657
2260.857903
3112.414514
3535.702888
3007.837386
3680.118921
3291.689590
2315.636398
3635.300152
4870.306231
4417.138678
3520.763298
4217.944149
4516.735942
3789.675912
3655.219605
3351.447948
2589.528875
1718.052812
1782.791033
1274.844985
-766.898936
-856.536474
-64.738222
-702.160714
-433.248100
-194.214666
-796.778116
-1329.623480
-2036.764058
-1608.495821
-662.321809
-527.865502
-891.395517
-1060.710866
-1040.791413
-926.254559
-961.113602
-951.153875
-463.127280
-776.858663
-1105.529635
-557.744681
-652.362082
-1005.932371
-1020.871960
-911.314970
-1185.207447
-1618.455547
-512.925912
-358.550152
-1862.468845
-1329.623480
-323.691109
-642.402356
-687.221125
-184.254939
-746.979483
-1543.757599
-836.617021
-1254.925532
-2016.844605
-617.503040
-493.006459
-1384.401976
-502.966185
-1050.751140
-2046.723784
-1170.267857
-448.187690
-756.939210
-1588.576368
-1244.965805
-856.536474
-1807.690350
-1922.227204
-1010.912234
-1050.751140
-1369.462386
-1155.328267
-1678.213906
-2111.462006
-587.623860
-154.375760
-1145.368541
-926.254559
-532.845365
-1040.791413
-1344.563070
-582.643997
-298.791793
-502.966185
219.113982
622.482903
-124.496581
134.456307
851.556611
64.738222
-737.019757
-642.402356
-727.060030
-1344.563070
-1339.583207
-1100.549772
-1404.321429
-1419.261018
-1379.422112
-1583.596505
-1259.905395
-1040.791413
-2250.898176
-2235.958587
-846.576748
-866.496201
-2191.139818
-1847.529255
-512.925912
-1658.294453
-2843.501900
-2748.884498
-1060.710866
4481.876900
11125.014438
16055.079027
15636.770517
6697.916033
-2046.723784
-3630.320289
-2360.455167
-1439.180471
-697.180851
-612.523176
-667.301672
-443.207827
-1045.771277
-1319.663754
-303.771657
-522.885638
-786.818389
-473.087006
-1180.227584
-896.375380
-219.113982
-268.912614
-448.187690
-378.469605
-383.449468
-597.583587
-378.469605
59.758359
224.093845
-109.556991
-34.859043
378.469605
-74.697948
-114.536854
776.858663
278.872340
-418.308511
423.288374
453.167553
19.919453
1339.583207
2081.582827
1190.187310
1429.220745
1772.831307
881.435790
1424.240881
2440.132979
2305.676672
2151.300912
2694.106003
3286.709726
2903.260258
2873.381079
3336.508359
3266.790274
3152.253419
3779.716185
4043.648936
4327.501140
4686.051292
4581.474164
4212.964286
3475.944529
3675.139058
2604.468465
1528.818009
2375.394757
1354.522796
84.657675
592.603723
268.912614
-841.596884
-1339.583207
-990.992781
-995.972644
-946.174012
-717.100304
-1140.388678
-1334.603343
-1339.583207
-1170.267857
-841.596884
-916.294833
-791.798252
-328.670973
-1000.952508
-1409.301292
-493.006459
-856.536474
-1210.106763
-453.167553
-1269.865122
-1309.704027
49.798632
-1299.744301
-2355.475304
-318.711246
-946.174012
-2071.623100
-388.429331
-368.509878
-1269.865122
-990.992781
-244.013298
-627.462766
-1742.952128
-1195.167173
-702.160714
-1364.482523
-1100.549772
-926.254559
-1663.274316
-1409.301292
-1349.542933
-2340.535714
-1220.066489
-258.952888
-1464.079787
-1653.314590
-652.362082
-881.435790
-1304.724164
-1210.106763
-1374.442249
-1299.744301
-1578.616641
-1205.126900
-632.442629
-1329.623480
-1449.140198
-1180.227584
-1797.730623
-1334.603343
-468.107143
-1190.187310
-1349.542933
-637.422492
-637.422492
-398.389058
-19.919453
-234.053571
-343.610562
378.469605
936.214286
34.859043
-234.053571
572.684271
353.570289
-871.476064
-1015.892097
-871.476064
-2061.663374
-1742.952128
-1110.509498
-1424.240881
-1628.415274
-1752.911854
-1140.388678
-1862.468845
-2310.656535
-1658.294453
-1728.012538
-1314.683891
-841.596884
-1419.261018
-2086.562690
-1917.247340
-2395.314210
-3675.139058
-1503.918693
4820.507599
10826.222644
16338.931231
16443.508359
6304.506839
-3077.555471
-4247.823328
-2131.381459
-1175.247720
-652.362082
-861.516337
-1977.005699
-986.012918
-204.174392
-1165.287994
-1354.522796
-597.583587
-622.482903
-1115.489362
-702.160714
-413.328647
-612.523176
-607.543313
-931.234422
-766.898936
-268.912614
-273.892477
-702.160714
-976.053191
244.013298
244.013298
-517.905775
-134.456307
343.610562
552.764818
-189.234802
129.476444
378.469605
-458.147416
846.576748
1419.261018
478.066869
468.107143
896.375380
1180.227584
746.979483
1055.731003
1777.811170
1728.012538
2141.341185
2420.213526
1981.985562
2539.730243
3396.266717
3057.636018
2788.723404
3465.984802
3640.280015
3077.555471
3824.534954
4367.340046
3182.132599
3625.340426
4163.165653
3216.991641
2972.978343
2435.153116
2240.938450
1210.106763
39.838906
911.314970
348.590426
-1025.851824
-527.865502
-612.523176
-1409.301292
-1045.771277
-1140.388678
-1668.254179
-1384.401976
-1299.744301
-1698.133359
-1170.267857
-1284.804711
-2350.495441
-1080.630319
-433.248100
-1518.858283
-1588.576368
-871.476064
-692.200988
-1474.039514
-1718.052812
-1035.811550
-1414.281155
-1663.274316
-139.436170
-353.570289
-1558.697188
-776.858663
-682.241261
-1842.549392
-1703.113222
-961.113602
-871.476064
-1488.979103
-926.254559
-886.415653
-2141.341185
-1339.583207
-801.757979
-1917.247340
-1309.704027
-1185.207447
-3321.568769
-2435.153116
-453.167553
-1010.912234
-1439.180471
-587.623860
-986.012918
-2260.857903
-1693.153495
-1444.160334
-1742.952128
-1339.583207
-761.919073
-1005.932371
-1757.891717
-1683.193769
-1708.093085
-1732.992401
-1284.804711
-1588.576368
-2903.260258
-1623.435410
-239.033435
-1299.744301
-1005.932371
-662.321809
-727.060030
-244.013298
-209.154255
418.308511
224.093845
-512.925912
-124.496581
-986.012918
-1045.771277
-876.455927
-2106.482143
-2375.394757
-1578.616641
-1125.449088
-1837.569529
-2141.341185
-1977.005699
-1877.408435
-2076.602964
-1812.670213
-1708.093085
-2564.629559
-2240.938450
-1299.744301
-1683.193769
-2111.462006
-2056.683511
-2599.488602
-3993.850304
-3027.756839
3560.602204
10417.873860
15557.092705
16881.736322
8032.519377
-2235.958587
-4058.588526
-2788.723404
-2445.112842
-1379.422112
-672.281535
-1215.086626
-1419.261018
-901.355243
-981.033055
-1693.153495
-1553.717325
-966.093465
-1115.489362
-717.100304
-453.167553
-1220.066489
-816.697568
-9.959726
-423.288374
-692.200988
-149.395897
-164.335486
-468.107143
-154.375760
-343.610562
-582.643997
-428.268237
-159.355623
134.456307
-831.637158
-273.892477
732.039894
343.610562
682.241261
-532.845365
-328.670973
1230.026216
1030.831687
1025.851824
1185.207447
1284.804711
1349.542933
1354.522796
1732.992401
2425.193389
1618.455547
1379.422112
3401.246581
1882.388298
1065.690729
4083.487842
3929.112082
3326.548632
4133.286474
4043.648936
3789.675912
3854.414134
3849.434271
3027.756839
2913.219985
2624.387918
821.677432
826.657295
1264.885258
199.194529
-418.308511
-901.355243
-707.140578
-1110.509498
-2216.039134
-1230.026216
-682.241261
-1528.818009
-1175.247720
-1145.368541
-1817.650076
-1543.757599
-1533.797872
-1708.093085
-1663.274316
-1942.146657
-1628.415274
-1703.113222
-1518.858283
-1000.952508
-1957.086246
-1623.435410
-697.180851
-1742.952128
-2146.321049
-921.274696
-1050.751140
-1628.415274
-1269.865122
-1210.106763
-1205.126900
-1115.489362
-956.133739
-1737.972264
-2544.710106
-697.180851
-881.435790
-2823.582447
-1304.724164
-861.516337
-1991.945289
-1394.361702
-1090.590046
-1877.408435
-2086.562690
-1369.462386
-1299.744301
-1643.354863
-1155.328267
-1195.167173
-1986.965426
-1902.307751
-1115.489362
-1379.422112
-2400.294073
-1344.563070
-806.737842
-1469.059650
-1349.542933
-1907.287614
-2186.159954
-1812.670213
-931.234422
-1035.811550
-1454.120061
-677.261398
-1100.549772
-1314.683891
-109.556991
4.979863
-632.442629
-652.362082
-542.805091
-19.919453
393.409195
149.395897
-821.677432
-1986.965426
-1334.603343
-1070.670593
-2116.441869
-2380.374620
-1967.045973
-1842.549392
-2186.159954
-2265.837766
-1742.952128
-2081.582827
-2196.119681
-1832.589666
-2679.166413
-2699.085866
-1792.750760
-1688.173632
-3077.555471
-3107.434650
-2181.180091
-59.758359
5866.278875
11867.014058
15606.891337
13221.536854
2808.642857
-4795.608283
-4013.769757
-2161.260638
-1334.603343
-1683.193769
-2380.374620
-816.697568
-936.214286
-1503.918693
-557.744681
-806.737842
-737.019757
-821.677432
-1528.818009
-951.153875
-199.194529
84.657675
-483.046733
-966.093465
-453.167553
-398.389058
-358.550152
-69.718085
-263.932751
-1060.710866
-746.979483
552.764818
-229.073708
-667.301672
622.482903
473.087006
-204.174392
368.509878
906.335106
936.214286
642.402356
293.811930
393.409195
722.080167
1693.153495
1424.240881
1055.731003
2494.911474
2380.374620
727.060030
1877.408435
3779.716185
2898.280395
2828.562310
3426.145897
3102.454787
3535.702888
3949.031535
3754.816869
3550.642477
3954.011398
3978.910714
3356.427812
3769.756459
3665.179331
2415.233663
2016.844605
2250.898176
1558.697188
-144.416033
-164.335486
507.946049
-179.275076
-727.060030
-1100.549772
-976.053191
-911.314970
-766.898936
-1005.932371
-2166.240502
-1479.019377
-637.422492
-1628.415274
-1638.375000
-881.435790
-1479.019377
-1708.093085
-801.757979
-881.435790
-966.093465
-368.509878
-956.133739
-1464.079787
-1055.731003
-901.355243
-1404.321429
-1384.401976
-647.382219
-1354.522796
-1030.831687
-248.993161
-1035.811550
-1190.187310
-1230.026216
-692.200988
-796.778116
-1852.509119
-911.314970
-906.335106
-1767.851444
-1060.710866
-891.395517
-1608.495821
-1399.341565
-1190.187310
-1713.072948
-1120.469225
-1254.925532
-1832.589666
-1259.905395
-776.858663
-1334.603343
-1439.180471
-1294.764438
-1464.079787
-1035.811550
-1464.079787
-1424.240881
-1095.569909
-1678.213906
-995.972644
-816.697568
-1573.636778
-463.127280
-493.006459
-1444.160334
-692.200988
283.852204
358.550152
-189.234802
-293.811930
-184.254939
-49.798632
-582.643997
-732.039894
-761.919073
-1633.395137
-1364.482523
-1384.401976
-1742.952128
-1543.757599
-2340.535714
-2400.294073
-1120.469225
-1543.757599
-1752.911854
-995.972644
-1040.791413
-1449.140198
-1533.797872
-1279.824848
-1479.019377
-2280.777356
-2982.938070
-2001.905015
1449.140198
6673.016717
11961.631459
14800.153495
11179.792933
1991.945289
-3565.582067
-3406.226444
-2156.280775
-647.382219
-1175.247720
-1195.167173
-4.979863
-921.274696
-1135.408815
-358.550152
-547.784954
-951.153875
-766.898936
-293.811930
-418.308511
-901.355243
-567.704407
-79.677812
-278.872340
-612.523176
-493.006459
-84.657675
-199.194529
159.355623
59.758359
-901.355243
-313.731383
268.912614
-204.174392
89.637538
368.509878
408.348784
537.825228
-94.617401
204.174392
532.845365
308.751520
517.905775
1130.428951
1454.120061
1055.731003
1050.751140
1693.153495
2001.905015
1424.240881
1538.777736
2629.367781
3012.817249
2425.193389
2604.468465
3037.716565
2529.770517
2953.058891
4392.239362
4013.769757
2878.360942
3560.602204
3560.602204
2793.703267
3152.253419
2654.267097
1543.757599
1503.918693
1434.200608
592.603723
-323.691109
49.798632
-567.704407
-2201.099544
-1170.267857
-497.986322
-1040.791413
-891.395517
-1025.851824
-1324.643617
-1100.549772
-363.530015
-453.167553
-1274.844985
-1220.066489
-732.039894
-1135.408815
-1150.348404
-1244.965805
-1991.945289
-1090.590046
-478.066869
-1215.086626
-1837.569529
-1269.865122
-507.946049
-1469.059650
-1917.247340
-537.825228
-69.718085
-632.442629
-647.382219
-687.221125
-1030.831687
-891.395517
-722.080167
-1493.958967
-1135.408815
-697.180851
-1498.938830
-1339.583207
-687.221125
-1105.529635
-2250.898176
-1633.395137
-398.389058
-1742.952128
-1877.408435
9.959726
-811.717705
-1508.898556
-268.912614
-363.530015
-1274.844985
-1080.630319
-751.959347
-1244.965805
-1075.650456
-931.234422
-1334.603343
-1598.536094
-1000.952508
-239.033435
-836.617021
-582.643997
-29.879179
-129.476444
179.275076
-338.630699
-358.550152
891.395517
488.026596
-313.731383
-423.288374
-990.992781
-801.757979
-921.274696
-1583.596505
-1723.032675
-2166.240502
-1598.536094
-672.281535
-1379.422112
-1723.032675
-1135.408815
-1409.301292
-1972.025836
-1469.059650
-1000.952508
-1658.294453
-1872.428571
-1449.140198
-2430.173252
-2041.743921
3192.092325
8928.894757
12698.651216
13111.979863
5876.238602
-2624.387918
-4347.420593
-2554.669833
-1658.294453
-1195.167173
-468.107143
-303.771657
-1225.046353
-1628.415274
-946.174012
-1200.147036
-1324.643617
-493.006459
-493.006459
-901.355243
-856.536474
-622.482903
-816.697568
-1449.140198
-682.241261
-134.456307
-278.872340
-44.818769
-353.570289
-687.221125
-219.113982
169.315350
84.657675
308.751520
662.321809
761.919073
-572.684271
-916.294833
497.986322
373.489742
44.818769
617.503040
722.080167
602.563450
916.294833
871.476064
906.335106
1264.885258
1349.542933
766.898936
1394.361702
2828.562310
2395.314210
2350.495441
2813.622720
2753.864362
2096.522416
2260.857903
3535.702888
3630.320289
3774.736322
4173.125380
3620.360562
2365.435030
2455.072568
2629.367781
1488.979103
1718.052812
1324.643617
179.275076
-323.691109
-582.643997
-642.402356
-761.919073
34.859043
-169.315350
-1120.469225
-473.087006
-836.617021
-2116.441869
-1210.106763
-263.932751
-717.100304
-746.979483
-562.724544
-657.341945
-1349.542933
-2031.784195
-1215.086626
-826.657295
-946.174012
-751.959347
-791.798252
-463.127280
-1772.831307
-2375.394757
-577.664134
0.000000
-368.509878
-776.858663
-537.825228
-552.764818
-1409.301292
-1274.844985
-428.268237
-632.442629
-1304.724164
-398.389058
-283.852204
-1937.166793
-1414.281155
-956.133739
-1334.603343
-851.556611
-737.019757
-642.402356
-687.221125
-821.677432
-1364.482523
-1419.261018
-702.160714
-358.550152
-602.563450
-1070.670593
-547.784954
-1125.449088
-2390.334347
-1030.831687
-796.778116
-1399.341565
-174.295213
-49.798632
-901.355243
-129.476444
-64.738222
-727.060030
44.818769
497.986322
622.482903
378.469605
-189.234802
-388.429331
-353.570289
-343.610562
-761.919073
-1314.683891
-776.858663
-1299.744301
-1723.032675
-1040.791413
-1558.697188
-1319.663754
-995.972644
-1040.791413
-856.536474
-1598.536094
-2166.240502
-1558.697188
-871.476064
-1085.610182
-1409.301292
-1628.415274
-2086.562690
-149.395897
4501.796353
9058.371201
13017.362462
12424.758739
4432.078267
-2763.824088
-3575.541793
-1957.086246
-1349.542933
-786.818389
-328.670973
-637.422492
-831.637158
-248.993161
-836.617021
-1374.442249
-408.348784
-891.395517
-841.596884
283.852204
453.167553
-323.691109
-672.281535
214.134119
-114.536854
-1449.140198
-114.536854
1120.469225
-134.456307
-199.194529
453.167553
328.670973
49.798632
-433.248100
14.939590
194.214666
343.610562
1195.167173
677.261398
353.570289
1389.381839
1374.442249
-303.771657
622.482903
1653.314590
308.751520
1180.227584
2489.931611
2096.522416
1837.569529
2395.314210
2728.965046
1887.368161
2549.689970
3690.078647
2972.978343
3137.313830
4043.648936
3764.776596
3371.367401
3944.051672
3585.501520
3485.904255
4033.689210
2793.703267
1782.791033
2300.696809
1737.972264
109.556991
19.919453
697.180851
582.643997
-24.899316
244.013298
-109.556991
-493.006459
-502.966185
-1737.972264
-1593.556231
-901.355243
-438.227964
-577.664134
-1030.831687
-483.046733
-582.643997
-1105.529635
-1085.610182
-1638.375000
-2305.676672
-1508.898556
-303.771657
-248.993161
-662.321809
-433.248100
-488.026596
-995.972644
-1105.529635
-547.784954
-587.623860
-2151.300912
-1429.220745
-69.718085
-841.596884
-488.026596
-323.691109
-1020.871960
-1220.066489
-1673.234043
-1479.019377
-497.986322
-199.194529
-497.986322
-1175.247720
-876.455927
-951.153875
-3027.756839
-2235.958587
-124.496581
-622.482903
-727.060030
-179.275076
-657.341945
-1215.086626
-836.617021
-617.503040
-1673.234043
-1777.811170
-662.321809
-1145.368541
-1289.784574
-393.409195
-727.060030
-1090.590046
-478.066869
-29.879179
-1772.831307
-2320.616261
428.268237
1205.126900
627.462766
592.603723
448.187690
-89.637538
-1239.985942
-886.415653
-617.503040
-1269.865122
-746.979483
-856.536474
-1862.468845
-1513.878419
-1010.912234
-1653.314590
-1314.683891
-741.999620
-1737.972264
-1583.596505
-1394.361702
-2958.038754
-2265.837766
-368.509878
-727.060030
-1937.166793
-1922.227204
-1503.918693
1105.529635
6926.989742
11687.738982
13425.711246
9581.256839
1264.885258
-3739.877280
-3371.367401
-1728.012538
-572.684271
-886.415653
-2275.797492
-1220.066489
-1225.046353
-1688.173632
24.899316
-64.738222
-717.100304
-672.281535
-39.838906
-139.436170
-497.986322
-179.275076
-746.979483
-672.281535
9.959726
-288.832067
-567.704407
-258.952888
-1698.133359
-2230.978723
612.523176
786.818389
-248.993161
632.442629
961.113602
483.046733
273.892477
338.630699
79.677812
49.798632
438.227964
1190.187310
1000.952508
861.516337
1498.938830
1523.838146
1329.623480
338.630699
517.905775
1703.113222
1937.166793
3052.656155
3321.568769
3102.454787
4108.387158
3724.937690
2614.428191
3475.944529
4168.145517
3759.796733
4008.789894
4342.440729
3630.320289
3152.253419
3475.944529
1723.032675
64.738222
1369.462386
1942.146657
707.140578
453.167553
712.120441
-552.764818
-911.314970
-283.852204
-966.093465
-1060.710866
-328.670973
-403.368921
-1085.610182
-841.596884
-831.637158
-1643.354863
-1528.818009
-1718.052812
-1299.744301
-771.878799
-741.999620
-587.623860
-761.919073
-961.113602
-1962.066109
-1319.663754
-761.919073
-841.596884
-732.039894
-1254.925532
-702.160714
-373.489742
-1279.824848
-1239.985942
-263.932751
-1628.415274
-2280.777356
-378.469605
-403.368921
-1354.522796
-1165.287994
-1000.952508
-1225.046353
-1115.489362
-976.053191
-1105.529635
-1090.590046
-612.523176
-990.992781
-2958.038754
-2250.898176
-268.912614
-896.375380
-1050.751140
-288.832067
-941.194149
-1120.469225
-946.174012
-1488.979103
-1723.032675
-1374.442249
-861.516337
-1050.751140
-1140.388678
-761.919073
-1225.046353
-2230.978723
-1568.656915
-393.409195
-109.556991
378.469605
388.429331
19.919453
403.368921
398.389058
94.617401
84.657675
-1035.811550
-1444.160334
-1030.831687
-1095.569909
-1210.106763
-1648.334726
-1434.200608
-1583.596505
-2340.535714
-1887.368161
-1474.039514
-1508.898556
-1469.059650
-941.194149
-1359.502660
-2529.770517
-2026.804331
-1723.032675
-1359.502660
-1279.824848
-1922.227204
-2041.743921
154.375760
5940.976824
11359.068009
14277.267857
11642.920213
2888.320669
-3899.232903
-3555.622340
-1329.623480
-1787.770897
-1304.724164
-353.570289
-697.180851
-1205.126900
-761.919073
-458.147416
-2270.817629
-1887.368161
-134.456307
-607.543313
-592.603723
-59.758359
114.536854
-234.053571
-1080.630319
-239.033435
79.677812
-632.442629
169.315350
-313.731383
-627.462766
-39.838906
-542.805091
-109.556991
179.275076
164.335486
273.892477
-229.073708
14.939590
338.630699
428.268237
956.133739
657.341945
14.939590
1050.751140
1553.717325
393.409195
507.946049
1777.811170
2121.421733
1852.509119
2280.777356
2972.978343
2982.938070
2943.099164
3461.004939
3202.052052
2803.662994
3724.937690
3944.051672
3047.676292
3759.796733
4601.393617
3396.266717
2943.099164
3515.783435
2743.904635
1897.327888
1454.120061
488.026596
682.241261
552.764818
-244.013298
-547.784954
-592.603723
-219.113982
-1090.590046
-1598.536094
-488.026596
-149.395897
-1080.630319
-1050.751140
-886.415653
-1772.831307
-1140.388678
-403.368921
-1369.462386
-1678.213906
-836.617021
-956.133739
-1369.462386
-458.147416
-194.214666
-1210.106763
-1364.482523
-612.523176
-1110.509498
-1424.240881
-746.979483
-831.637158
-1274.844985
-891.395517
-463.127280
-1538.777736
-916.294833
607.543313
-1040.791413
-1608.495821
-313.731383
-961.113602
-1723.032675
-1175.247720
-702.160714
-836.617021
-1090.590046
-826.657295
-936.214286
-1284.804711
-941.194149
-990.992781
-1439.180471
-1942.146657
-1633.395137
-1872.428571
-1947.126520
-273.892477
-577.664134
-1488.979103
-577.664134
-1060.710866
-2046.723784
-697.180851
-273.892477
-1115.489362
-951.153875
-687.221125
-1249.945669
-1314.683891
-493.006459
-637.422492
-926.254559
19.919453
244.013298
-602.563450
-871.476064
-19.919453
836.617021
189.234802
-473.087006
-741.999620
-751.959347
-448.187690
-662.321809
-1299.744301
-1344.563070
-1135.408815
-1424.240881
-1663.274316
-1249.945669
-1498.938830
-1603.515957
-1180.227584
-2181.180091
-2240.938450
-1474.039514
-1319.663754
-1314.683891
-1588.576368
-1877.408435
-2609.448328
-1742.952128
3067.595745
8903.995441
13370.932751
14705.536094
8983.673252
-841.596884
-3834.494681
-1842.549392
-2270.817629
-1648.334726
119.516717
-537.825228
-2211.059271
-1025.851824
214.134119
-1215.086626
-1449.140198
-109.556991
-184.254939
-986.012918
-552.764818
-94.617401
-667.301672
-761.919073
-24.899316
-169.315350
-737.019757
-244.013298
-129.476444
-368.509878
219.113982
298.791793
-328.670973
-687.221125
-49.798632
418.308511
0.000000
522.885638
896.375380
204.174392
39.838906
816.697568
876.455927
737.019757
1389.381839
971.073328
971.073328
1703.113222
1827.609802
1658.294453
1653.314590
2624.387918
3082.535334
2554.669833
2474.992021
2719.005319
3465.984802
4466.937310
3565.582067
3281.729863
4551.594985
4536.655395
3635.300152
3421.166033
3929.112082
3346.468085
2699.085866
2216.039134
1045.771277
692.200988
1055.731003
682.241261
-234.053571
-493.006459
-577.664134
-1314.683891
-1638.375000
-298.791793
-373.489742
-1588.576368
-692.200988
-263.932751
-1742.952128
-1867.448708
-737.019757
-1160.308131
-1309.704027
-732.039894
-891.395517
-1419.261018
-831.637158
-512.925912
-1459.099924
-1439.180471
-1354.522796
-1384.401976
-891.395517
-234.053571
-841.596884
-2066.643237
-846.576748
-234.053571
-961.113602
-816.697568
-413.328647
-612.523176
-1269.865122
-1095.569909
-926.254559
-1175.247720
-876.455927
-881.435790
-1304.724164
-1563.677052
-1344.563070
-921.274696
-926.254559
-1125.449088
-1603.515957
-1404.321429
-746.979483
-891.395517
-1010.912234
-781.838526
-1055.731003
-1693.153495
-1638.375000
-622.482903
-956.133739
-1981.985562
-1130.428951
-507.946049
-1573.636778
-1528.818009
-388.429331
-428.268237
-1633.395137
-1518.858283
-761.919073
-1668.254179
-587.623860
328.670973
-946.174012
-423.288374
398.389058
-194.214666
74.697948
846.576748
348.590426
-253.973024
174.295213
-164.335486
-1713.072948
-1130.428951
-99.597264
-1225.046353
-1419.261018
-836.617021
-1289.784574
-1409.301292
-1742.952128
-2479.971884
-1772.831307
-1324.643617
-1419.261018
-1055.731003
-1140.388678
-1175.247720
-1797.730623
-1917.247340
-1882.388298
-3291.689590
-1239.985942
5064.520897
10691.766337
14934.609802
14894.770897
6832.372340
-1907.287614
-3769.756459
-2061.663374
-886.415653
-1294.764438
-1488.979103
-69.718085
-473.087006
-1274.844985
104.577128
-562.724544
-1807.690350
-483.046733
149.395897
-627.462766
-542.805091
89.637538
-692.200988
-1244.965805
-74.697948
408.348784
-647.382219
-781.838526
338.630699
403.368921
-418.308511
-154.375760
219.113982
393.409195
756.939210
702.160714
567.704407
582.643997
717.100304
438.227964
-149.395897
493.006459
1568.656915
936.214286
353.570289
990.992781
1618.455547
2201.099544
2579.569149
2270.817629
2006.884878
2599.488602
2455.072568
2494.911474
3899.232903
4447.017857
4432.078267
4402.199088
4606.373480
4825.487462
5198.977204
5761.701748
5567.487082
5139.218845
4257.783055
4188.064970
3968.950988
3690.078647
3744.857143
2350.495441
1742.952128
2250.898176
1673.234043
667.301672
901.355243
1020.871960
144.416033
473.087006
1344.563070
144.416033
0.000000
1264.885258
268.912614
-637.422492
323.691109
931.234422
393.409195
657.341945
1125.449088
652.362082
687.221125
199.194529
-109.556991
209.154255
547.784954
846.576748
587.623860
692.200988
901.355243
204.174392
-119.516717
771.878799
766.898936
-4.979863
517.905775
39.838906
-931.234422
-69.718085
293.811930
34.859043
288.832067
512.925912
-149.395897
-532.845365
-134.456307
408.348784
49.798632
-497.986322
288.832067
-423.288374
-537.825228
4.979863
-1424.240881
-746.979483
288.832067
-288.832067
-577.664134
-248.993161
383.449468
-567.704407
-1055.731003
-29.879179
34.859043
-174.295213
0.000000
-717.100304
-1249.945669
-493.006459
-169.315350
-273.892477
59.758359
29.879179
-423.288374
-368.509878
697.180851
1404.321429
378.469605
746.979483
1239.985942
308.751520
587.623860
766.898936
-239.033435
-1070.670593
-612.523176
-488.026596
-1792.750760
-1259.905395
-79.677812
-866.496201
-1120.469225
-1060.710866
-727.060030
-916.294833
-1598.536094
-986.012918
-567.704407
-1000.952508
-1005.932371
-1279.824848
-2629.367781
-2878.360942
-1857.488982
2136.361322
9018.532295
14307.147036
16602.863982
11981.550912
1772.831307
-3670.159195
-3087.515198
-1284.804711
-493.006459
-1005.932371
-811.717705
-164.335486
-268.912614
-488.026596
-378.469605
-383.449468
-986.012918
-468.107143
-199.194529
-761.919073
-34.859043
-408.348784
-1070.670593
89.637538
682.241261
-248.993161
-59.758359
652.362082
-413.328647
-756.939210
493.006459
557.744681
-29.879179
502.966185
741.999620
234.053571
-253.973024
-89.637538
851.556611
1100.549772
1309.704027
1180.227584
697.180851
1359.502660
1230.026216
512.925912
1299.744301
2330.575988
2091.542553
1917.247340
2594.508739
3122.374240
2733.944909
2574.589286
3221.971505
3515.783435
3480.924392
4048.628799
4481.876900
3794.655775
3774.736322
4526.695669
4377.299772
3545.662614
3625.340426
3102.454787
1892.348024
1857.488982
1314.683891
662.321809
941.194149
911.314970
-976.053191
-1135.408815
234.053571
-771.878799
-1020.871960
-368.509878
-836.617021
-1932.186930
-1319.663754
-149.395897
-951.153875
-851.556611
-622.482903
-1374.442249
-1150.348404
-702.160714
-956.133739
-1613.475684
-1339.583207
-567.704407
-921.274696
-522.885638
-338.630699
-1319.663754
-1369.462386
-652.362082
-627.462766
-921.274696
-493.006459
-497.986322
-761.919073
-493.006459
-512.925912
-1563.677052
-1538.777736
-607.543313
-936.214286
-1239.985942
-547.784954
-692.200988
-1538.777736
-2011.864742
-1394.361702
-562.724544
-1175.247720
-951.153875
-956.133739
-1394.361702
-1000.952508
-1464.079787
-1493.958967
-1264.885258
-1369.462386
-931.234422
-896.375380
-1588.576368
-1837.569529
-1215.086626
-1040.791413
-1060.710866
-1822.629939
-1862.468845
-278.872340
-936.214286
-1503.918693
-393.409195
-502.966185
-597.583587
-358.550152
-413.328647
-268.912614
-542.805091
-438.227964
-313.731383
-542.805091
-24.899316
-164.335486
-1314.683891
-1991.945289
-1643.354863
-1404.321429
-1299.744301
-881.435790
-1369.462386
-1732.992401
-971.073328
-1155.328267
-2360.455167
-1897.327888
-1324.643617
-2011.864742
-1474.039514
-732.039894
-2091.542553
-3062.615881
-2335.555851
-2455.072568
378.469605
6628.197948
11583.161854
14635.818009
11468.625000
2470.012158
-3749.837006
-3978.910714
-1862.468845
-856.536474
-841.596884
-746.979483
-821.677432
-1165.287994
-1414.281155
-906.335106
-662.321809
-622.482903
-547.784954
-1309.704027
-677.261398
-547.784954
-1558.697188
-522.885638
174.295213
-94.617401
-49.798632
29.879179
-293.811930
-1195.167173
-517.905775
771.878799
39.838906
-627.462766
418.308511
856.536474
612.523176
174.295213
144.416033
438.227964
328.670973
418.308511
722.080167
841.596884
642.402356
1503.918693
1140.388678
507.946049
2081.582827
1942.146657
1568.656915
2649.287234
2470.012158
2380.374620
3231.931231
2748.884498
2385.354483
3381.327128
4038.669073
3585.501520
2958.038754
3844.454407
3670.159195
2569.609422
3461.004939
3675.139058
2933.139438
2674.186550
2340.535714
1449.140198
199.194529
268.912614
423.288374
-517.905775
-876.455927
-363.530015
-547.784954
-1075.650456
-602.563450
-886.415653
-1728.012538
-582.643997
-741.999620
-2440.132979
-1563.677052
-323.691109
-946.174012
-1130.428951
-597.583587
-1160.308131
-1289.784574
-906.335106
-1334.603343
-1015.892097
-343.610562
-537.825228
-841.596884
-1379.422112
-1708.093085
-856.536474
-388.429331
-737.019757
-990.992781
-1055.731003
-717.100304
-796.778116
-1384.401976
-1304.724164
-607.543313
-657.341945
-1488.979103
-1404.321429
-438.227964
-1000.952508
-2116.441869
-1170.267857
-1105.529635
-1498.938830
-552.764818
-901.355243
-1518.858283
-1010.912234
-816.697568
-1259.905395
-1190.187310
-1359.502660
-1503.918693
-1020.871960
-702.160714
-856.536474
-1932.186930
-1817.650076
-537.825228
-771.878799
-1115.489362
-1304.724164
-1603.515957
-622.482903
214.134119
-532.845365
-751.959347
139.436170
363.530015
-378.469605
-443.207827
527.865502
263.932751
-522.885638
-647.382219
-602.563450
-816.697568
-881.435790
-851.556611
-1349.542933
-1439.180471
-1160.308131
-1010.912234
-1259.905395
-1269.865122
-1613.475684
-2255.878040
-1548.737462
-1160.308131
-1872.428571
-1673.234043
-1140.388678
-1673.234043
-2410.253799
-2380.374620
841.596884
6752.694529
12265.403116
15706.488602
12295.282295
2614.428191
-3162.213146
-2898.280395
-1713.072948
-956.133739
-866.496201
-871.476064
-1548.737462
-2275.797492
-597.583587
-244.013298
-1000.952508
-204.174392
-54.778495
189.234802
14.939590
-567.704407
-582.643997
-612.523176
-204.174392
-517.905775
-617.503040
-44.818769
-139.436170
54.778495
-164.335486
-547.784954
-229.073708
159.355623
507.946049
836.617021
1055.731003
144.416033
-9.959726
1035.811550
776.858663
199.194529
1155.328267
1135.408815
283.852204
1180.227584
1488.979103
1230.026216
1444.160334
1832.589666
2280.777356
2225.998860
2624.387918
3281.729863
3122.374240
3281.729863
3655.219605
3351.447948
3077.555471
3963.971125
4322.521277
3854.414134
4322.521277
4108.387158
3341.488222
3296.669453
2793.703267
2071.623100
1947.126520
1454.120061
781.838526
298.791793
84.657675
64.738222
-732.039894
-1100.549772
-607.543313
-1190.187310
-1474.039514
-756.939210
-1115.489362
-1259.905395
-1200.147036
-1513.878419
-1020.871960
-1434.200608
-1384.401976
-1409.301292
-1822.629939
-906.335106
-1040.791413
-1339.583207
-961.113602
-1200.147036
-1693.153495
-1389.381839
-1040.791413
-1349.542933
-1180.227584
-1384.401976
-2026.804331
-1483.999240
-373.489742
-468.107143
-1235.006079
-1155.328267
-1244.965805
-2031.784195
-1663.274316
-702.160714
-1035.811550
-1807.690350
-1598.536094
-1005.932371
-1613.475684
-1932.186930
-1080.630319
-1374.442249
-1708.093085
-602.563450
-956.133739
-2440.132979
-1902.307751
-547.784954
-1115.489362
-2051.703647
-1170.267857
-806.737842
-2335.555851
-1732.992401
-986.012918
-1877.408435
-1439.180471
-1160.308131
-1015.892097
-1314.683891
-1324.643617
-1454.120061
-1752.911854
-851.556611
-557.744681
-99.597264
-219.113982
-607.543313
24.899316
338.630699
741.999620
612.523176
184.254939
378.469605
169.315350
-547.784954
-906.335106
-811.717705
-1090.590046
-1613.475684
-1299.744301
-1409.301292
-1523.838146
-911.314970
-1244.965805
-1513.878419
-776.858663
-612.523176
-1279.824848
-1225.046353
-741.999620
-1170.267857
-1732.992401
-1449.140198
-1887.368161
-3042.696429
-1528.818009
4083.487842
9815.310410
14028.274696
16403.669453
10253.538374
-463.127280
-3734.897416
-2071.623100
-1020.871960
-343.610562
-667.301672
-1045.771277
-1025.851824
-856.536474
-667.301672
-537.825228
-174.295213
-268.912614
-268.912614
24.899316
-9.959726
-483.046733
-398.389058
-124.496581
-288.832067
-69.718085
478.066869
234.053571
-921.274696
-527.865502
69.718085
-712.120441
49.798632
577.664134
-368.509878
159.355623
746.979483
19.919453
234.053571
1015.892097
1314.683891
722.080167
592.603723
1643.354863
831.637158
423.288374
2360.455167
2176.200228
453.167553
1817.650076
2963.018617
2096.522416
2455.072568
3246.870821
3127.354103
3022.776976
3884.293313
3958.991261
3366.387538
4277.702508
4407.178951
2863.421353
3575.541793
4203.004559
3182.132599
3480.924392
3246.870821
2564.629559
1718.052812
1264.885258
1414.281155
194.214666
-119.516717
54.778495
-851.556611
-1354.522796
-1050.751140
-866.496201
-1284.804711
-821.677432
-831.637158
-1981.985562
-1578.616641
-448.187690
-976.053191
-1434.200608
-642.402356
-916.294833
-1588.576368
-1548.737462
-1175.247720
-1145.368541
-662.321809
-234.053571
-1399.341565
-1369.462386
-806.737842
-1155.328267
-737.019757
-692.200988
-961.113602
-931.234422
-1000.952508
-627.462766
-1110.509498
-1568.656915
-1040.791413
-876.455927
-1364.482523
-1728.012538
-1359.502660
-1115.489362
-1100.549772
-921.274696
-1424.240881
-1872.428571
-881.435790
-861.516337
-1912.267477
-1304.724164
-1035.811550
-1942.146657
-1379.422112
-1035.811550
-1723.032675
-1583.596505
-886.415653
-911.314970
-1802.710486
-2479.971884
-1698.133359
-1050.751140
-1200.147036
-1035.811550
-1249.945669
-1150.348404
-1135.408815
-1364.482523
-1384.401976
-861.516337
-871.476064
-1513.878419
-572.684271
926.254559
224.093845
-821.677432
388.429331
692.200988
-104.577128
-139.436170
-273.892477
-1205.126900
-1573.636778
-1050.751140
-1548.737462
-1937.166793
-1394.361702
-1493.958967
-2325.596125
-1937.166793
-1289.784574
-1488.979103
-1344.563070
-1244.965805
-1523.838146
-1513.878419
-1299.744301
-1289.784574
-2270.817629
-2888.320669
-2803.662994
-2061.663374
3147.273556
9715.713146
14401.764438
16174.595745
9561.337386
-657.341945
-4098.427432
-2410.253799
-1329.623480
-1688.173632
-1284.804711
-542.805091
-806.737842
-911.314970
-866.496201
-1005.932371
-1483.999240
-1185.207447
-268.912614
-532.845365
-881.435790
-248.993161
-338.630699
-1140.388678
-672.281535
-562.724544
-1000.952508
-851.556611
-19.919453
184.254939
89.637538
368.509878
-851.556611
-214.134119
537.825228
-179.275076
293.811930
-4.979863
89.637538
602.563450
448.187690
1035.811550
1215.086626
174.295213
497.986322
1444.160334
1125.449088
1787.770897
2111.462006
986.012918
1857.488982
3147.273556
2539.730243
2504.871201
3271.770137
3495.863982
2614.428191
2833.542173
4546.615122
3998.830167
3436.105623
4576.494301
3804.615502
2948.079027
3934.091945
3869.353723
2479.971884
2131.381459
2430.173252
1020.871960
144.416033
293.811930
-816.697568
-806.737842
-44.818769
-244.013298
-876.455927
-1095.569909
-951.153875
-1563.677052
-1837.569529
-1249.945669
-821.677432
-722.080167
-1035.811550
-1518.858283
-1225.046353
-821.677432
-1070.670593
-1369.462386
-1573.636778
-741.999620
-622.482903
-1449.140198
-741.999620
-722.080167
-1190.187310
-1175.247720
-1284.804711
-1055.731003
-662.321809
-682.241261
-1319.663754
-1986.965426
-1633.395137
-1025.851824
-1518.858283
-881.435790
-458.147416
-1533.797872
-1454.120061
-861.516337
-1095.569909
-1299.744301
-941.194149
-1065.690729
-1573.636778
-1135.408815
-1239.985942
-1772.831307
-1543.757599
-1897.327888
-1812.670213
-1220.066489
-961.113602
-1583.596505
-2211.059271
-1239.985942
-1040.791413
-1414.281155
-1105.529635
-891.395517
-1344.563070
-1892.348024
-1230.026216
-791.798252
-1239.985942
-995.972644
-637.422492
-1080.630319
-607.543313
-258.952888
-871.476064
-707.140578
-358.550152
-79.677812
-154.375760
239.033435
662.321809
-9.959726
-712.120441
-946.174012
-1035.811550
-1897.327888
-1538.777736
-1045.771277
-1772.831307
-1384.401976
-1230.026216
-1757.891717
-1757.891717
-1548.737462
-1663.274316
-2201.099544
-2674.186550
-1737.972264
-1135.408815
-1488.979103
-1384.401976
-3296.669453
-3804.615502
602.563450
6045.553951
11642.920213
16931.534954
14999.348024
4915.125000
-3107.434650
-4153.205927
-2201.099544
-1055.731003
-1349.542933
-1145.368541
-662.321809
-1195.167173
-1215.086626
-931.234422
-562.724544
-164.335486
-896.375380
-951.153875
-104.577128
-766.898936
-916.294833
-24.899316
-756.939210
-1010.912234
-224.093845
-542.805091
-582.643997
-248.993161
263.932751
258.952888
-448.187690
209.154255
-79.677812
-219.113982
891.395517
428.268237
-737.019757
-39.838906
1518.858283
1130.428951
617.503040
911.314970
741.999620
607.543313
1449.140198
2181.180091
1374.442249
1379.422112
2435.153116
2524.790653
2385.354483
2699.085866
2878.360942
2858.441489
3675.139058
4078.507979
3595.461246
3889.273176
4357.380319
4148.226064
4113.367021
4347.420593
4098.427432
3132.333967
2823.582447
3301.649316
1932.186930
891.395517
2181.180091
542.805091
-836.617021
667.301672
-448.187690
-1344.563070
-258.952888
-204.174392
-931.234422
-846.576748
-468.107143
-1175.247720
-1638.375000
-727.060030
-547.784954
-1752.911854
-1688.173632
-642.402356
-1578.616641
-1762.871581
-64.738222
-502.966185
-1309.704027
-811.717705
-781.838526
-712.120441
-433.248100
-572.684271
-931.234422
-781.838526
-204.174392
-921.274696
-1837.569529
-1817.650076
-1170.267857
-1563.677052
-2006.884878
-697.180851
-1095.569909
-1384.401976
-677.261398
-1060.710866
-1070.670593
-766.898936
-1449.140198
-1957.086246
-836.617021
-727.060030
-1887.368161
-1349.542933
-617.503040
-1459.099924
-1957.086246
-1319.663754
-866.496201
-741.999620
-1185.207447
-1568.656915
-1235.006079
-1877.408435
-1678.213906
-717.100304
-1080.630319
-1155.328267
-1528.818009
-1728.012538
-906.335106
-398.389058
-911.314970
-1304.724164
-358.550152
-258.952888
-463.127280
144.416033
54.778495
194.214666
687.221125
527.865502
368.509878
463.127280
-358.550152
-756.939210
-911.314970
-1105.529635
-458.147416
-776.858663
-637.422492
-557.744681
-1239.985942
-976.053191
-846.576748
-1369.462386
-1294.764438
-732.039894
-861.516337
-1633.395137
-1568.656915
-946.174012
-1230.026216
-1120.469225
-1792.750760
-3590.481383
-1195.167173
5766.681611
11896.893237
16239.333967
16358.850684
7031.566869
-2519.810790
-3017.797112
-1055.731003
-821.677432
-607.543313
-9.959726
-59.758359
-881.435790
-463.127280
-184.254939
-1150.348404
-692.200988
268.912614
-562.724544
-637.422492
244.013298
-358.550152
-517.905775
378.469605
-219.113982
-751.959347
443.207827
184.254939
-478.066869
244.013298
159.355623
-497.986322
-144.416033
741.999620
881.435790
244.013298
-114.536854
587.623860
771.878799
0.000000
1045.771277
1045.771277
796.778116
2221.018997
806.737842
493.006459
2046.723784
2181.180091
2036.764058
2056.683511
2888.320669
2539.730243
1210.106763
2639.327508
3680.118921
2345.515578
3291.689590
4745.809650
3291.689590
2823.582447
4765.729103
4636.252660
3680.118921
4168.145517
3749.837006
2888.320669
2823.582447
2624.387918
1618.455547
1145.368541
532.845365
-478.066869
-497.986322
-333.650836
-622.482903
-1284.804711
-1180.227584
-916.294833
-1598.536094
-1538.777736
-687.221125
-851.556611
-1703.113222
-1483.999240
-1145.368541
-1379.422112
-986.012918
-781.838526
-1254.925532
-1802.710486
-1957.086246
-1304.724164
-1220.066489
-1483.999240
-612.523176
-1115.489362
-1728.012538
-647.382219
-1125.449088
-1523.838146
-612.523176
-806.737842
-1683.193769
-1324.643617
-771.878799
-1867.448708
-1812.670213
-846.576748
-1533.797872
-1698.133359
-1135.408815
-1055.731003
-1673.234043
-2380.374620
-1762.871581
-1454.120061
-1364.482523
-916.294833
-1239.985942
-1479.019377
-1967.045973
-2315.636398
-1787.770897
-1155.328267
-1105.529635
-1474.039514
-1359.502660
-1100.549772
-1180.227584
-1977.005699
-2141.341185
-1344.563070
-1847.529255
-1528.818009
-756.939210
-1603.515957
-2056.683511
-1688.173632
-1474.039514
-1578.616641
-507.946049
19.919453
-512.925912
4.979863
-104.577128
-597.583587
-149.395897
-29.879179
-567.704407
-946.174012
-1160.308131
-1464.079787
-2051.703647
-2579.569149
-2026.804331
-2141.341185
-2559.649696
-1568.656915
-1583.596505
-2066.643237
-1837.569529
-2499.891337
-2808.642857
-1424.240881
-1289.784574
-2011.864742
-1663.274316
-1703.113222
-2554.669833
-4242.843465
-1817.650076
5338.413374
10407.914134
14964.488982
14785.213906
4631.272796
-3401.246581
-3386.306991
-2674.186550
-2285.757219
-1120.469225
-1319.663754
-1304.724164
-931.234422
-1075.650456
-1638.375000
-2435.153116
-1643.354863
-697.180851
-946.174012
-707.140578
-448.187690
-921.274696
-776.858663
-373.489742
-1518.858283
-1832.589666
-19.919453
-94.617401
-771.878799
169.315350
4.979863
-244.013298
488.026596
-896.375380
-1429.220745
-74.697948
393.409195
448.187690
134.456307
682.241261
129.476444
-453.167553
1095.569909
1653.314590
836.617021
1120.469225
1887.368161
1513.878419
1235.006079
1693.153495
1498.938830
1578.616641
2982.938070
3296.669453
2758.844225
3346.468085
3889.273176
3087.515198
3007.837386
3814.575228
3779.716185
3376.347264
3998.830167
4317.541413
3062.615881
2763.824088
2539.730243
861.516337
383.449468
1140.388678
926.254559
34.859043
-303.771657
134.456307
-1005.932371
-2230.978723
-966.093465
-981.033055
-1668.254179
-697.180851
-851.556611
-1678.213906
-1354.522796
-831.637158
-1464.079787
-2679.166413
-2240.938450
-1010.912234
-1025.851824
-1235.006079
-532.845365
-1020.871960
-1633.395137
-741.999620
-1259.905395
-1309.704027
-512.925912
-1140.388678
-1235.006079
-786.818389
-986.012918
-2131.381459
-1762.871581
-652.362082
-1394.361702
-1244.965805
-592.603723
-1254.925532
-1488.979103
-1324.643617
-1912.267477
-2091.542553
-1090.590046
-522.885638
-1045.771277
-1459.099924
-926.254559
-886.415653
-2977.958207
-2818.602584
-746.979483
-1190.187310
-1419.261018
-791.798252
-1165.287994
-1618.455547
-1155.328267
-826.657295
-2076.602964
-2225.998860
-926.254559
-1264.885258
-1469.059650
-1020.871960
-1150.348404
-1010.912234
-433.248100
-488.026596
-2041.743921
-1847.529255
224.093845
4.979863
-74.697948
846.576748
184.254939
84.657675
79.677812
-1464.079787
-1742.952128
-1185.207447
-1135.408815
-1698.133359
-2489.931611
-1713.072948
-995.972644
-1817.650076
-2225.998860
-1429.220745
-2021.824468
-2719.005319
-1638.375000
-1379.422112
-1429.220745
-1528.818009
-2156.280775
-2524.790653
-2843.501900
-2036.764058
2435.153116
8824.317629
13829.080167
15537.173252
9840.209726
-268.912614
-5388.212006
-3555.622340
-1130.428951
-1254.925532
-1394.361702
-732.039894
-617.503040
-1334.603343
-1279.824848
-1045.771277
-1573.636778
-1045.771277
-9.959726
-343.610562
-1040.791413
-308.751520
-234.053571
-1777.811170
-1469.059650
-363.530015
-428.268237
-224.093845
184.254939
-174.295213
-278.872340
89.637538
-1409.301292
-1703.113222
483.046733
931.234422
303.771657
458.147416
956.133739
562.724544
697.180851
244.013298
-776.858663
851.556611
1777.811170
1444.160334
1454.120061
1673.234043
1877.408435
2445.112842
1394.361702
532.845365
2977.958207
3152.253419
2499.891337
3804.615502
3580.521657
2435.153116
3675.139058
4760.749240
4357.380319
4581.474164
4451.997720
3869.353723
3834.494681
3695.058511
2499.891337
1175.247720
881.435790
1239.985942
1030.831687
771.878799
463.127280
-547.784954
-448.187690
-413.328647
-2549.689970
-2639.327508
-826.657295
-577.664134
-741.999620
-627.462766
-657.341945
-1125.449088
-1922.227204
-1598.536094
-751.959347
-1195.167173
-1120.469225
-687.221125
-1030.831687
-966.093465
-876.455927
-1713.072948
-1822.629939
-1155.328267
-941.194149
-567.704407
-806.737842
-1469.059650
-1010.912234
-846.576748
-1608.495821
-1563.677052
-617.503040
-199.194529
-1269.865122
-1314.683891
-532.845365
-836.617021
-1120.469225
-741.999620
-801.757979
-1523.838146
-771.878799
-951.153875
-2743.904635
-1742.952128
-483.046733
-1080.630319
-1249.945669
-647.382219
-557.744681
-1528.818009
-737.019757
-1274.844985
-3789.675912
-1827.609802
129.476444
-497.986322
-776.858663
-562.724544
-612.523176
-2126.401596
-2380.374620
-567.704407
-368.509878
-1080.630319
-268.912614
-179.275076
-806.737842
378.469605
-34.859043
-1822.629939
-14.939590
941.194149
-39.838906
448.187690
557.744681
-383.449468
-846.576748
-1488.979103
-2753.864362
-1688.173632
-403.368921
-801.757979
-1185.207447
-1200.147036
-926.254559
-1314.683891
-1797.730623
-2340.535714
-1782.791033
-1215.086626
-1215.086626
-712.120441
-1493.958967
-1718.052812
-2699.085866
-3789.675912
-488.026596
5672.064210
11772.396657
15616.851064
14581.039514
6717.835486
-1618.455547
-3122.374240
-1404.321429
-986.012918
-881.435790
44.818769
-497.986322
-1588.576368
-1264.885258
-1020.871960
-916.294833
-532.845365
-248.993161
-1294.764438
-1528.818009
-662.321809
-443.207827
-39.838906
0.000000
229.073708
149.395897
-383.449468
19.919453
-388.429331
-1025.851824
144.416033
786.818389
-229.073708
149.395897
1105.529635
-423.288374
-562.724544
976.053191
278.872340
278.872340
1289.784574
507.946049
139.436170
1394.361702
1235.006079
602.563450
1434.200608
2250.898176
2385.354483
1205.126900
1588.576368
2689.126140
2390.334347
3331.528495
4118.346884
3655.219605
3814.575228
4198.024696
3829.514818
3854.414134
5124.279255
5099.379939
2888.320669
3306.629179
4282.682371
2778.763678
2664.226824
2972.978343
1996.925152
74.697948
-328.670973
886.415653
-149.395897
-687.221125
174.295213
-1244.965805
-2051.703647
-567.704407
-572.684271
-1394.361702
-921.274696
-478.066869
-1020.871960
-1125.449088
-577.664134
-751.959347
-1777.811170
-1279.824848
-552.764818
-1902.307751
-1802.710486
-497.986322
-627.462766
-403.368921
94.617401
-756.939210
-1070.670593
-298.791793
-557.744681
-956.133739
-552.764818
-268.912614
-781.838526
-846.576748
-388.429331
-1010.912234
-796.778116
-328.670973
-946.174012
-1389.381839
-1220.066489
-746.979483
-697.180851
-453.167553
-134.456307
-891.395517
-727.060030
19.919453
-1100.549772
-1633.395137
-781.838526
-587.623860
-741.999620
-712.120441
-313.731383
-602.563450
-856.536474
-453.167553
-876.455927
-966.093465
-1220.066489
-1095.569909
-388.429331
-383.449468
-244.013298
-741.999620
-727.060030
-468.107143
-1120.469225
-597.583587
169.315350
358.550152
746.979483
1329.623480
727.060030
273.892477
353.570289
343.610562
811.717705
179.275076
34.859043
-64.738222
-1015.892097
-1309.704027
-841.596884
-1065.690729
-1673.234043
-906.335106
-1020.871960
-1444.160334
-916.294833
-1215.086626
-1299.744301
-876.455927
-806.737842
-1364.482523
-1708.093085
-896.375380
-1284.804711
-3461.004939
-2415.233663
3530.723024
9496.599164
14730.435410
17489.279635
10806.303191
662.321809
-2803.662994
-2295.716945
-1792.750760
-453.167553
-14.939590
-1613.475684
-1170.267857
154.375760
-1045.771277
-1075.650456
229.073708
-458.147416
-961.113602
-572.684271
-448.187690
-234.053571
-652.362082
-941.194149
-607.543313
-258.952888
463.127280
-169.315350
-602.563450
333.650836
179.275076
14.939590
517.905775
488.026596
-174.295213
-14.939590
702.160714
791.798252
642.402356
527.865502
94.617401
139.436170
1493.958967
1857.488982
831.637158
831.637158
1812.670213
1663.274316
1175.247720
2230.978723
2679.166413
1912.267477
2474.992021
3934.091945
3565.582067
2738.924772
4058.588526
4063.568389
3500.843845
4935.044453
4581.474164
3978.910714
4198.024696
4262.762918
4183.085106
3331.528495
3411.206307
2738.924772
1703.113222
1503.918693
821.677432
244.013298
-119.516717
-313.731383
-1120.469225
-1215.086626
-627.462766
-1399.341565
-1688.173632
-936.214286
-741.999620
-956.133739
-791.798252
-896.375380
-1299.744301
-1498.938830
-1200.147036
-861.516337
-1259.905395
-771.878799
-712.120441
-1862.468845
-1090.590046
-532.845365
-1558.697188
-990.992781
-1180.227584
-2300.696809
-1180.227584
-478.066869
-1215.086626
-1269.865122
-1195.167173
-826.657295
-448.187690
-986.012918
-1050.751140
-1359.502660
-1593.556231
-592.603723
-677.261398
-1528.818009
-1015.892097
-712.120441
-1817.650076
-1777.811170
-557.744681
-956.133739
-1708.093085
-1628.415274
-916.294833
-1593.556231
-2096.522416
-428.268237
-876.455927
-1977.005699
-1035.811550
-936.214286
-1518.858283
-946.174012
-871.476064
-1324.643617
-946.174012
-816.697568
-1573.636778
-1503.918693
-1314.683891
-1777.811170
-1703.113222
-891.395517
-169.315350
-532.845365
-9.959726
811.717705
9.959726
-119.516717
677.261398
44.818769
-1015.892097
-542.805091
-702.160714
-1917.247340
-1683.193769
-1135.408815
-1693.153495
-2101.502280
-1852.509119
-1957.086246
-2280.777356
-2081.582827
-1807.690350
-1947.126520
-2036.764058
-1568.656915
-2131.381459
-2310.656535
-1284.804711
-1737.972264
-3182.132599
-3575.541793
-1598.536094
3371.367401
10696.746201
16294.112462
15572.032295
7365.217705
-1847.529255
-4028.709347
-2574.589286
-2061.663374
-1299.744301
-1239.985942
-1185.207447
-786.818389
-2086.562690
-2146.321049
-956.133739
-1304.724164
-1558.697188
-1105.529635
-1065.690729
-1045.771277
-702.160714
-781.838526
-826.657295
-1030.831687
-1474.039514
-1045.771277
-423.288374
-283.852204
-771.878799
-831.637158
-214.134119
-214.134119
-582.643997
-602.563450
239.033435
313.731383
-403.368921
104.577128
253.973024
-393.409195
104.577128
587.623860
179.275076
268.912614
338.630699
-169.315350
916.294833
2305.676672
2151.300912
1867.448708
1902.307751
2813.622720
2928.159574
2460.052432
3192.092325
3187.112462
2948.079027
3874.333587
4661.151976
3709.998100
2893.300532
3729.917553
3291.689590
2330.575988
2728.965046
1986.965426
806.737842
1593.556231
1269.865122
298.791793
318.711246
-239.033435
-936.214286
-1294.764438
-1160.308131
-1304.724164
-1822.629939
-1752.911854
-1409.301292
-2191.139818
-2763.824088
-1673.234043
-1384.401976
-1862.468845
-1772.831307
-1319.663754
-1414.281155
-1259.905395
-1444.160334
-2230.978723
-1613.475684
-1334.603343
-1643.354863
-1563.677052
-1045.771277
-1235.006079
-2141.341185
-1877.408435
-1259.905395
-1573.636778
-1703.113222
-1399.341565
-1922.227204
-1842.549392
-1220.066489
-1528.818009
-1972.025836
-2016.844605
-1663.274316
-1558.697188
-1254.925532
-1045.771277
-2489.931611
-2091.542553
-951.153875
-2395.314210
-2191.139818
-1230.026216
-1623.435410
-1897.327888
-1409.301292
-1120.469225
-2066.643237
-2026.804331
-1259.905395
-1832.589666
-2470.012158
-1718.052812
-1498.938830
-1737.972264
-1613.475684
-1752.911854
-1623.435410
-1732.992401
-1553.717325
-1394.361702
-1728.012538
-1020.871960
-313.731383
-722.080167
-941.194149
-632.442629
-418.308511
39.838906
328.670973
-398.389058
-602.563450
-378.469605
-956.133739
-1902.307751
-2026.804331
-1249.945669
-1752.911854
-2470.012158
-1444.160334
-1663.274316
-2474.992021
-1588.576368
-1747.931991
-2305.676672
-1683.193769
-1150.348404
-1747.931991
-2460.052432
-1882.388298
-1907.287614
-2435.153116
-3107.434650
-3734.897416
-702.160714
5378.252280
11085.175532
15477.414894
13968.516337
4631.272796
-3416.186170
-4237.863602
-2235.958587
-1493.958967
-1513.878419
-956.133739
-547.784954
-1264.885258
-1464.079787
-896.375380
-1334.603343
-1902.307751
-891.395517
-293.811930
-1488.979103
-1454.120061
-343.610562
-612.523176
-876.455927
-313.731383
-567.704407
-1060.710866
-468.107143
-333.650836
-662.321809
-293.811930
-537.825228
-597.583587
-104.577128
-378.469605
-89.637538
433.248100
224.093845
-119.516717
-119.516717
572.684271
1115.489362
951.153875
687.221125
677.261398
911.314970
841.596884
1389.381839
1668.254179
1658.294453
2504.871201
2265.837766
2001.905015
2893.300532
3291.689590
2584.549012
2923.179711
3819.555091
3675.139058
3381.327128
3729.917553
4481.876900
4083.487842
3157.233283
2923.179711
2689.126140
1986.965426
1772.831307
1558.697188
921.274696
517.905775
134.456307
-199.194529
-677.261398
-692.200988
-727.060030
-1235.006079
-1170.267857
-1523.838146
-2435.153116
-1543.757599
-746.979483
-1752.911854
-1548.737462
-323.691109
-866.496201
-1608.495821
-951.153875
-1075.650456
-1737.972264
-1254.925532
-637.422492
-1070.670593
-1469.059650
-926.254559
-1035.811550
-1588.576368
-1374.442249
-956.133739
-1628.415274
-1623.435410
-64.738222
-1010.912234
-1957.086246
-229.073708
-687.221125
-1882.388298
-941.194149
-896.375380
-1434.200608
-986.012918
-776.858663
-1244.965805
-1483.999240
-1244.965805
-1220.066489
-1464.079787
-1449.140198
-1289.784574
-1653.314590
-2036.764058
-2245.918313
-1837.569529
-956.133739
-702.160714
-776.858663
-1419.261018
-1384.401976
-856.536474
-1379.422112
-1633.395137
-1005.932371
-1284.804711
-1802.710486
-527.865502
-408.348784
-1110.509498
-577.664134
-1299.744301
-921.274696
468.107143
458.147416
443.207827
-109.556991
-144.416033
313.731383
-328.670973
-657.341945
-990.992781
-1937.166793
-2021.824468
-951.153875
-1474.039514
-2345.515578
-1493.958967
-1548.737462
-1842.549392
-1573.636778
-1523.838146
-2395.314210
-2963.018617
-1538.777736
-1259.905395
-1897.327888
-1045.771277
-1643.354863
-3276.750000
-2166.240502
1518.858283
6682.976444
11787.336246
15103.925152
11632.960486
1464.079787
-3914.172492
-3092.495061
-2290.737082
-1289.784574
-1050.751140
-1518.858283
-841.596884
-956.133739
-1842.549392
-1852.509119
-672.281535
-313.731383
-1648.334726
-1225.046353
-74.697948
-408.348784
-453.167553
-333.650836
-761.919073
-672.281535
-303.771657
-383.449468
-502.966185
-14.939590
-174.295213
-1170.267857
-124.496581
542.805091
-577.664134
-258.952888
547.784954
607.543313
-54.778495
-139.436170
881.435790
353.570289
308.751520
1394.361702
159.355623
-104.577128
1259.905395
1249.945669
1777.811170
2131.381459
2021.824468
2315.636398
2614.428191
3127.354103
2728.965046
2674.186550
3630.320289
3610.400836
3520.763298
4277.702508
4193.044833
3167.193009
3112.414514
4143.246201
3441.085486
1728.012538
2270.817629
3032.736702
1618.455547
483.046733
1120.469225
677.261398
159.355623
323.691109
-841.596884
-841.596884
-398.389058
-1349.542933
-1010.912234
14.939590
-1065.690729
-1837.569529
-1095.569909
-961.113602
-1518.858283
-1409.301292
-741.999620
-1040.791413
-1628.415274
-1289.784574
-771.878799
-1668.254179
-1170.267857
84.657675
-826.657295
-881.435790
-44.818769
-941.194149
-1678.213906
-702.160714
-433.248100
-1085.610182
-1195.167173
-727.060030
-881.435790
-906.335106
-602.563450
-966.093465
-1075.650456
-652.362082
-876.455927
-1548.737462
-901.355243
-353.570289
-896.375380
-911.314970
-637.422492
-1713.072948
-1757.891717
-617.503040
-717.100304
-1419.261018
-1578.616641
-273.892477
-717.100304
-1812.670213
-911.314970
-702.160714
-1429.220745
-961.113602
-632.442629
-1235.006079
-811.717705
-597.583587
-1050.751140
-732.039894
-34.859043
-129.476444
-667.301672
-338.630699
204.174392
154.375760
388.429331
796.778116
-532.845365
-1593.556231
-124.496581
707.140578
-368.509878
-781.838526
-761.919073
-1324.643617
-751.959347
-990.992781
-2071.623100
-1065.690729
-323.691109
-1488.979103
-1812.670213
-826.657295
-876.455927
-1628.415274
-1155.328267
-746.979483
-1095.569909
-1284.804711
-2365.435030
-2953.058891
-1488.979103
2758.844225
8525.525836
12798.248480
15268.260638
11174.813070
-59.758359
-5672.064210
-2519.810790
-657.341945
-871.476064
-44.818769
-69.718085
-761.919073
-746.979483
-1274.844985
-1309.704027
-592.603723
-174.295213
129.476444
-209.154255
-34.859043
234.053571
-164.335486
-114.536854
-348.590426
-976.053191
-288.832067
448.187690
99.597264
-164.335486
532.845365
388.429331
-532.845365
-44.818769
971.073328
866.496201
14.939590
537.825228
1125.449088
34.859043
-114.536854
1030.831687
1115.489362
1324.643617
2006.884878
1598.536094
1528.818009
2046.723784
1867.448708
1643.354863
2380.374620
2743.904635
2624.387918
3271.770137
3924.132219
3565.582067
3640.280015
4676.091565
4471.917173
3849.434271
4282.682371
4407.178951
4183.085106
4143.246201
3754.816869
3630.320289
3202.052052
2783.743541
2081.582827
841.596884
976.053191
971.073328
-119.516717
-328.670973
149.395897
-64.738222
-811.717705
-961.113602
-483.046733
-906.335106
-1683.193769
-1000.952508
-199.194529
14.939590
-64.738222
-737.019757
-1115.489362
-522.885638
-398.389058
-990.992781
-517.905775
-617.503040
-1633.395137
-1165.287994
-577.664134
-1090.590046
-791.798252
-497.986322
-1349.542933
-1543.757599
-836.617021
-567.704407
-786.818389
-851.556611
-771.878799
-647.382219
-398.389058
-244.013298
-488.026596
-1165.287994
-1498.938830
-1185.207447
-926.254559
-567.704407
-702.160714
-1155.328267
-881.435790
-906.335106
-587.623860
-1225.046353
-2380.374620
-1060.710866
-841.596884
-1698.133359
-1304.724164
-841.596884
-1095.569909
-786.818389
-517.905775
-1344.563070
-921.274696
-413.328647
-871.476064
-901.355243
-637.422492
-776.858663
-1239.985942
-692.200988
89.637538
-134.456307
547.784954
961.113602
9.959726
323.691109
547.784954
-298.791793
-458.147416
-547.784954
-891.395517
-1244.965805
-1140.388678
-946.174012
-1598.536094
-1678.213906
-756.939210
-826.657295
-1668.254179
-1135.408815
-901.355243
-2499.891337
-2026.804331
-851.556611
-1663.274316
-1289.784574
-448.187690
-2031.784195
-3690.078647
-1508.898556
3709.998100
9302.384498
14556.140198
16189.535334
9670.894377
164.335486
-3958.991261
-2714.025456
-1085.610182
-478.066869
-84.657675
-741.999620
-816.697568
-333.650836
-786.818389
-1190.187310
-612.523176
-428.268237
-732.039894
-642.402356
-791.798252
-517.905775
44.818769
234.053571
-323.691109
-408.348784
333.650836
-184.254939
-886.415653
-443.207827
268.912614
0.000000
99.597264
483.046733
-398.389058
333.650836
961.113602
9.959726
169.315350
916.294833
1100.549772
607.543313
1085.610182
1678.213906
911.314970
871.476064
1683.193769
1922.227204
1454.120061
1533.797872
1897.327888
1777.811170
3012.817249
4073.528116
3092.495061
3321.568769
4486.856763
4207.984422
4217.944149
4377.299772
3983.890578
3655.219605
4337.460866
4700.990881
3530.723024
3107.434650
3107.434650
2121.421733
1289.784574
1737.972264
1603.515957
343.610562
-552.764818
-1095.569909
-861.516337
-74.697948
-84.657675
-881.435790
-1269.865122
-1015.892097
-951.153875
-1100.549772
-1050.751140
-288.832067
-1115.489362
-2066.643237
-891.395517
-1364.482523
-1419.261018
-348.590426
-871.476064
-1399.341565
-761.919073
-722.080167
-1638.375000
-1105.529635
-1110.509498
-1872.428571
-1190.187310
-712.120441
-677.261398
-1025.851824
-1090.590046
-806.737842
-1239.985942
-1160.308131
-607.543313
-1025.851824
-1195.167173
-1040.791413
-1205.126900
-1020.871960
-1394.361702
-1105.529635
-1010.912234
-2395.314210
-1718.052812
-637.422492
-1289.784574
-1105.529635
-732.039894
-995.972644
-2494.911474
-2728.965046
-771.878799
-493.006459
-956.133739
-966.093465
-1185.207447
-941.194149
-532.845365
-1598.536094
-2191.139818
-1518.858283
-1409.301292
-941.194149
-258.952888
-687.221125
-776.858663
139.436170
-771.878799
-1488.979103
204.174392
642.402356
-89.637538
34.859043
124.496581
-672.281535
-1399.341565
-1703.113222
-1498.938830
-1150.348404
-1329.623480
-1220.066489
-1588.576368
-1787.770897
-1533.797872
-2295.716945
-2285.757219
-986.012918
-921.274696
-1508.898556
-1488.979103
-1548.737462
-1474.039514
-2176.200228
-2943.099164
-2838.522036
-104.577128
7175.982903
12773.349164
15487.374620
14396.784574
4815.527736
-3271.770137
-3087.515198
-1175.247720
-1220.066489
-1613.475684
-911.314970
-537.825228
-1100.549772
-727.060030
-483.046733
-1150.348404
-617.503040
-463.127280
-1812.670213
-1304.724164
398.389058
-184.254939
-702.160714
378.469605
99.597264
-592.603723
-129.476444
263.932751
149.395897
-214.134119
-24.899316
258.952888
-527.865502
94.617401
483.046733
-1658.294453
-672.281535
1364.482523
906.335106
612.523176
1105.529635
1130.428951
552.764818
507.946049
687.221125
986.012918
1474.039514
1503.918693
2345.515578
2111.462006
1533.797872
3351.447948
3241.890957
2594.508739
3700.038374
3515.783435
3276.750000
4237.863602
3963.971125
3685.098784
4760.749240
4895.205547
3849.434271
4098.427432
4038.669073
2684.146277
2893.300532
2071.623100
756.939210
1000.952508
906.335106
273.892477
-109.556991
-338.630699
-1324.643617
-1837.569529
-856.536474
-537.825228
-906.335106
-1210.106763
-1284.804711
-707.140578
-1030.831687
-1035.811550
-786.818389
-1284.804711
-1120.469225
-592.603723
-1389.381839
-1957.086246
-712.120441
-592.603723
-1668.254179
-1314.683891
-677.261398
-861.516337
-1120.469225
-1419.261018
-1498.938830
-1055.731003
-1349.542933
-1284.804711
-697.180851
-592.603723
-413.328647
-1075.650456
-1932.186930
-1543.757599
-727.060030
-861.516337
-741.999620
-642.402356
-1469.059650
-1165.287994
-776.858663
-1508.898556
-1399.341565
-836.617021
-961.113602
-1593.556231
-1474.039514
-1190.187310
-1145.368541
-1508.898556
-2111.462006
-1324.643617
-866.496201
-821.677432
-851.556611
-1155.328267
-1080.630319
-1200.147036
-1583.596505
-1165.287994
-741.999620
-1464.079787
-1269.865122
-473.087006
-986.012918
-1015.892097
-488.026596
-741.999620
-672.281535
328.670973
652.362082
234.053571
-179.275076
-657.341945
-293.811930
-1155.328267
-2151.300912
-1364.482523
-1020.871960
-946.174012
-697.180851
-1593.556231
-2519.810790
-1414.281155
-1140.388678
-1812.670213
-1165.287994
-1319.663754
-1902.307751
-1040.791413
-1663.274316
-2818.602584
-1538.777736
-1319.663754
-2972.978343
-2868.401216
2465.032295
9491.619301
14342.006079
16652.662614
11105.094985
388.429331
-4327.501140
-2265.837766
-906.335106
-1170.267857
-532.845365
-318.711246
-1060.710866
-1304.724164
-1464.079787
-851.556611
-383.449468
-657.341945
-428.268237
-393.409195
-473.087006
-582.643997
-916.294833
-1309.704027
-751.959347
-258.952888
-84.657675
154.375760
-189.234802
-303.771657
79.677812
-433.248100
-1374.442249
-44.818769
1160.308131
483.046733
458.147416
951.153875
298.791793
567.704407
1304.724164
-318.711246
-1230.026216
109.556991
1464.079787
1553.717325
1613.475684
2066.643237
1747.931991
1772.831307
2216.039134
2235.958587
2365.435030
2977.958207
3535.702888
3276.750000
3416.186170
4158.185790
3934.091945
2589.528875
3550.642477
4999.782675
3849.434271
4133.286474
4710.950608
3540.682751
2923.179711
2738.924772
1508.898556
821.677432
796.778116
104.577128
-368.509878
-24.899316
134.456307
-727.060030
-1573.636778
-1070.670593
-1105.529635
-1907.287614
-821.677432
-547.784954
-1404.321429
-1050.751140
-707.140578
-1210.106763
-1902.307751
-1508.898556
-1608.495821
-1957.086246
-512.925912
-308.751520
-1170.267857
-532.845365
-483.046733
-1613.475684
-1379.422112
-622.482903
-1080.630319
-1075.650456
-781.838526
-1115.489362
-1439.180471
-1244.965805
-841.596884
-1220.066489
-1235.006079
-1055.731003
-1439.180471
-1718.052812
-1354.522796
-1115.489362
-1409.301292
-1120.469225
-851.556611
-607.543313
-1294.764438
-1543.757599
-941.194149
-1205.126900
-1005.932371
-956.133739
-1449.140198
-1698.133359
-1439.180471
-2101.502280
-1792.750760
-378.469605
-976.053191
-1239.985942
-1887.368161
-2420.213526
-1110.509498
-547.784954
-214.134119
-139.436170
-328.670973
89.637538
-139.436170
-69.718085
413.328647
-552.764818
-1090.590046
-408.348784
-343.610562
-1130.428951
-1782.791033
-1777.811170
-2096.522416
-1932.186930
-1334.603343
-1558.697188
-1673.234043
-1384.401976
-1210.106763
-2574.589286
-2669.206687
-966.093465
-1349.542933
-1523.838146
-951.153875
-1548.737462
-2415.233663
-2569.609422
-2245.918313
1030.831687
7285.539894
13121.939590
16015.240122
10243.578647
1005.932371
-3759.796733
-4212.964286
-1548.737462
-368.509878
-941.194149
-801.757979
-602.563450
-990.992781
-1369.462386
-1045.771277
-433.248100
-607.543313
-941.194149
-836.617021
-906.335106
-1000.952508
-463.127280
-239.033435
-368.509878
94.617401
-388.429331
-1080.630319
9.959726
0.000000
-732.039894
-139.436170
273.892477
383.449468
-124.496581
-298.791793
174.295213
144.416033
368.509878
732.039894
124.496581
129.476444
1120.469225
-9.959726
24.899316
2081.582827
2061.663374
1394.361702
1394.361702
1892.348024
1912.267477
2211.059271
3112.414514
2604.468465
2410.253799
3441.085486
3879.313450
3535.702888
3172.172872
3296.669453
3904.212766
4153.205927
3968.950988
4133.286474
3655.219605
3172.172872
2216.039134
901.355243
2066.643237
2216.039134
263.932751
253.973024
527.865502
-253.973024
-756.939210
-976.053191
-1015.892097
-1175.247720
-976.053191
-732.039894
-1140.388678
-1055.731003
-871.476064
-1728.012538
-1678.213906
-956.133739
-1354.522796
-1314.683891
-771.878799
-1299.744301
-1912.267477
-1175.247720
-617.503040
-856.536474
-926.254559
-587.623860
-318.711246
-1314.683891
-1797.730623
-836.617021
-1145.368541
-1205.126900
-358.550152
-796.778116
-1244.965805
-946.174012
-1210.106763
-2186.159954
-1548.737462
-617.503040
-981.033055
-1025.851824
-791.798252
-761.919073
-1459.099924
-1608.495821
-1225.046353
-2096.522416
-1797.730623
-766.898936
-1055.731003
-1359.502660
-1409.301292
-1568.656915
-1508.898556
-756.939210
-1140.388678
-1737.972264
-1195.167173
-1264.885258
-1254.925532
-1045.771277
-1160.308131
-1244.965805
-906.335106
-746.979483
-722.080167
-378.469605
-453.167553
-388.429331
79.677812
89.637538
-995.972644
-1239.985942
-592.603723
-1095.569909
-1334.603343
-1264.885258
-1449.140198
-1344.563070
-1967.045973
-2006.884878
-1020.871960
-1553.717325
-1862.468845
-1010.912234
-1329.623480
-1927.207067
-1339.583207
-986.012918
-1503.918693
-1553.717325
-2011.864742
-2758.844225
-1782.791033
2898.280395
8779.498860
12872.946429
14396.784574
8998.612842
-323.691109
-4068.548252
-2375.394757
-1404.321429
-1757.891717
-976.053191
-413.328647
-1100.549772
-966.093465
-423.288374
-861.516337
-1628.415274
-1080.630319
-512.925912
-956.133739
-393.409195
-288.832067
-751.959347
-428.268237
-229.073708
-801.757979
-881.435790
129.476444
-179.275076
-512.925912
398.389058
49.798632
-1035.811550
-154.375760
667.301672
84.657675
-139.436170
49.798632
368.509878
263.932751
557.744681
901.355243
378.469605
333.650836
1215.086626
861.516337
313.731383
1110.509498
1633.395137
2036.764058
2290.737082
2514.830927
2365.435030
2191.139818
2918.199848
2649.287234
2977.958207
4198.024696
3675.139058
3386.306991
4113.367021
3963.971125
2679.166413
2400.294073
3132.333967
2958.038754
2569.609422
2275.797492
1210.106763
229.073708
393.409195
-19.919453
-727.060030
-388.429331
-114.536854
-527.865502
-916.294833
-806.737842
-801.757979
-1195.167173
-1847.529255
-976.053191
-677.261398
-1568.656915
-851.556611
-577.664134
-1235.006079
-1105.529635
-1040.791413
-1284.804711
-995.972644
-1105.529635
-1553.717325
-771.878799
-263.932751
-1309.704027
-1364.482523
-662.321809
-956.133739
-1155.328267
-592.603723
-577.664134
-856.536474
-458.147416
-692.200988
-1309.704027
-1215.086626
-657.341945
-821.677432
-1419.261018
-761.919073
-702.160714
-1683.193769
-1170.267857
-572.684271
-1369.462386
-1344.563070
-413.328647
-1175.247720
-1578.616641
-687.221125
-1225.046353
-1185.207447
-891.395517
-1135.408815
-647.382219
-712.120441
-901.355243
-1045.771277
-1319.663754
-1195.167173
-1180.227584
-1075.650456
-448.187690
-94.617401
-473.087006
-876.455927
-54.778495
522.885638
29.879179
388.429331
328.670973
-368.509878
-493.006459
-1100.549772
-1772.831307
-1419.261018
-1090.590046
-1474.039514
-1688.173632
-1145.368541
-1110.509498
-1429.220745
-1010.912234
-961.113602
-1449.140198
-1563.677052
-1827.609802
-1757.891717
-990.992781
-841.596884
-1678.213906
-2425.193389
-662.321809
3520.763298
8779.498860
13878.878799
14859.911854
7733.727584
-1598.536094
-3719.957827
-1937.166793
-1493.958967
-836.617021
-4.979863
-966.093465
-2136.361322
-1379.422112
-169.315350
-79.677812
-129.476444
-99.597264
-497.986322
-303.771657
84.657675
39.838906
-219.113982
-876.455927
-1160.308131
-124.496581
453.167553
-219.113982
-169.315350
433.248100
224.093845
-423.288374
268.912614
677.261398
-79.677812
248.993161
796.778116
393.409195
39.838906
931.234422
1344.563070
14.939590
756.939210
1862.468845
722.080167
1025.851824
2136.361322
1792.750760
1010.912234
1638.375000
2853.461626
2684.146277
2873.381079
3286.709726
2564.629559
3102.454787
4043.648936
4113.367021
4098.427432
4252.803191
4775.688830
4377.299772
4058.588526
3899.232903
2614.428191
2435.153116
3132.333967
2539.730243
1613.475684
1693.153495
1508.898556
388.429331
537.825228
-493.006459
-1713.072948
-751.959347
-448.187690
-224.093845
-577.664134
-936.214286
-826.657295
-1812.670213
-1414.281155
-104.577128
-567.704407
-906.335106
-328.670973
-562.724544
-1040.791413
-816.697568
-916.294833
-1110.509498
-1125.449088
-1249.945669
-1140.388678
-951.153875
-557.744681
-323.691109
-1389.381839
-1613.475684
-443.207827
-766.898936
-990.992781
-368.509878
-846.576748
-1160.308131
-1030.831687
-1474.039514
-1324.643617
-926.254559
-1150.348404
-1583.596505
-1085.610182
-463.127280
-881.435790
-1414.281155
-1190.187310
-473.087006
-1299.744301
-1962.066109
-657.341945
-502.966185
-1259.905395
-652.362082
-363.530015
-1762.871581
-2156.280775
-871.476064
-791.798252
-1464.079787
-1095.569909
-796.778116
-1030.831687
-841.596884
-846.576748
-1190.187310
-393.409195
214.134119
-577.664134
-567.704407
443.207827
244.013298
-428.268237
189.234802
-154.375760
-761.919073
-438.227964
-866.496201
-1269.865122
-1364.482523
-1244.965805
-1732.992401
-2096.522416
-1210.106763
-1135.408815
-1568.656915
-1239.985942
-1100.549772
-1648.334726
-1474.039514
-871.476064
-1180.227584
-1673.234043
-1379.422112
-1528.818009
-3351.447948
-1459.099924
5069.500760
10562.289894
14800.153495
14884.811170
6578.399316
-1807.690350
-2828.562310
-2101.502280
-1558.697188
-234.053571
-348.590426
-1254.925532
-707.140578
-69.718085
-826.657295
-796.778116
-59.758359
-657.341945
-886.415653
69.718085
-209.154255
-886.415653
-253.973024
-99.597264
-836.617021
-413.328647
49.798632
-179.275076
-209.154255
298.791793
502.966185
-244.013298
-308.751520
69.718085
234.053571
179.275076
702.160714
1005.932371
129.476444
368.509878
1359.502660
856.536474
891.395517
1732.992401
1130.428951
1254.925532
1713.072948
1344.563070
1902.307751
2225.998860
2111.462006
2549.689970
3027.756839
3585.501520
3655.219605
3680.118921
4372.319909
4013.769757
3709.998100
4875.286094
4750.789514
3381.327128
4063.568389
5009.742401
4128.306611
3411.206307
3470.964666
2798.683131
1603.515957
1588.576368
1289.784574
-69.718085
-273.892477
219.113982
-24.899316
-507.946049
-557.744681
-751.959347
-851.556611
-552.764818
-761.919073
-577.664134
-702.160714
-722.080167
-263.932751
-811.717705
-612.523176
-497.986322
-1215.086626
-697.180851
-1035.811550
-1060.710866
-358.550152
-761.919073
-746.979483
-781.838526
-368.509878
-547.784954
-1344.563070
-781.838526
-403.368921
-458.147416
-846.576748
-572.684271
-199.194529
-1060.710866
-682.241261
-418.308511
-1349.542933
-931.234422
-512.925912
-1030.831687
-941.194149
-1185.207447
-1115.489362
-537.825228
-707.140578
-677.261398
-1254.925532
-1807.690350
-821.677432
-448.187690
-761.919073
-507.946049
-707.140578
-1075.650456
-856.536474
-1060.710866
-1274.844985
-1160.308131
-746.979483
-642.402356
-1424.240881
-1424.240881
-781.838526
-1155.328267
-1065.690729
-278.872340
-293.811930
-134.456307
-174.295213
-537.825228
19.919453
727.060030
378.469605
229.073708
214.134119
-338.630699
-557.744681
-453.167553
-567.704407
-1244.965805
-1020.871960
-921.274696
-1653.314590
-1225.046353
-537.825228
-1603.515957
-2086.562690
-602.563450
-776.858663
-1493.958967
-936.214286
-786.818389
-1080.630319
-1264.885258
-1673.234043
-2415.233663
-2450.092705
976.053191
7419.996201
12887.886018
16627.763298
14287.227584
3719.957827
-3376.347264
-2569.609422
-1459.099924
-1593.556231
-532.845365
189.234802
-1080.630319
-1050.751140
-84.657675
-1578.616641
-1264.885258
667.301672
34.859043
-522.885638
24.899316
283.852204
-164.335486
-527.865502
-4.979863
-89.637538
-288.832067
313.731383
74.697948
-751.959347
-39.838906
672.281535
149.395897
318.711246
338.630699
-109.556991
438.227964
1140.388678
856.536474
488.026596
1095.569909
702.160714
79.677812
896.375380
1085.610182
971.073328
1513.878419
2270.817629
2046.723784
1857.488982
2903.260258
2933.139438
2539.730243
3231.931231
3784.696049
3480.924392
3097.474924
4013.769757
4402.199088
4088.467705
4860.346505
4447.017857
3924.132219
4601.393617
4546.615122
4113.367021
3575.541793
2798.683131
1912.267477
1518.858283
1294.764438
692.200988
-408.348784
-567.704407
303.771657
-388.429331
-851.556611
-428.268237
-1090.590046
-1120.469225
-149.395897
-572.684271
-1414.281155
-811.717705
-353.570289
-1020.871960
-1100.549772
-363.530015
-478.066869
-1319.663754
-926.254559
-308.751520
-687.221125
-732.039894
-672.281535
-1249.945669
-1673.234043
-527.865502
-353.570289
-1683.193769
-926.254559
-114.536854
-961.113602
-547.784954
-234.053571
-1294.764438
-1603.515957
-1130.428951
-866.496201
-1210.106763
-1379.422112
-946.174012
-901.355243
-771.878799
-393.409195
-746.979483
-1394.361702
-1498.938830
-911.314970
-1100.549772
-1035.811550
-557.744681
-1543.757599
-1767.851444
-981.033055
-1603.515957
-1419.261018
-512.925912
-1075.650456
-1533.797872
-1319.663754
-921.274696
-1150.348404
-1449.140198
-597.583587
-463.127280
-1394.361702
-990.992781
-597.583587
-1344.563070
-662.321809
74.697948
-1160.308131
-966.093465
308.751520
-413.328647
-567.704407
657.341945
44.818769
-672.281535
229.073708
303.771657
-866.496201
-1454.120061
-906.335106
-901.355243
-1115.489362
-1130.428951
-1409.301292
-1439.180471
-1299.744301
-1220.066489
-1354.522796
-1937.166793
-1732.992401
-1025.851824
-1812.670213
-1957.086246
-1010.912234
-1439.180471
-2619.408055
-2659.246960
-1603.515957
2380.374620
9023.512158
14252.368541
16856.837006
11613.041033
303.771657
-4397.219225
-2206.079407
-931.234422
-1215.086626
-931.234422
-483.046733
-1289.784574
-1419.261018
-328.670973
-293.811930
-1105.529635
-1294.764438
29.879179
-239.033435
-1140.388678
29.879179
-119.516717
-722.080167
-174.295213
-358.550152
-527.865502
-258.952888
0.000000
-69.718085
-458.147416
114.536854
99.597264
-393.409195
-368.509878
-59.758359
258.952888
463.127280
911.314970
94.617401
338.630699
1230.026216
667.301672
1125.449088
1787.770897
1563.677052
1678.213906
1508.898556
1225.046353
2016.844605
2126.401596
2201.099544
2624.387918
3117.394377
3705.018237
3042.696429
3137.313830
4232.883739
4461.957447
4203.004559
4631.272796
4895.205547
4123.326748
3909.192629
4447.017857
4043.648936
2225.998860
1628.415274
2315.636398
1603.515957
881.435790
1030.831687
219.113982
-986.012918
-174.295213
383.449468
-1060.710866
-1354.522796
-512.925912
-1220.066489
-981.033055
-458.147416
-1767.851444
-1259.905395
-293.811930
-956.133739
-1249.945669
-652.362082
-1239.985942
-1762.871581
-1040.791413
-567.704407
-786.818389
-1364.482523
-1010.912234
-906.335106
-1469.059650
-1120.469225
-582.643997
-776.858663
-816.697568
-871.476064
-1150.348404
-990.992781
-1050.751140
-1832.589666
-2360.455167
-1533.797872
-682.241261
-717.100304
-1110.509498
-956.133739
-1299.744301
-1723.032675
-1005.932371
-1120.469225
-1877.408435
-2141.341185
-1364.482523
-1409.301292
-1787.770897
-1359.502660
-1862.468845
-1767.851444
-896.375380
-1369.462386
-2265.837766
-1708.093085
-1464.079787
-1922.227204
-1190.187310
-522.885638
-1389.381839
-1807.690350
-1175.247720
-1598.536094
-2330.575988
-1488.979103
-871.476064
-1747.931991
-1294.764438
-9.959726
-547.784954
-1105.529635
-69.718085
-44.818769
-537.825228
458.147416
373.489742
-1070.670593
-667.301672
-328.670973
-1842.549392
-1837.569529
-1200.147036
-1389.381839
-1767.851444
-2131.381459
-2036.764058
-2186.159954
-2121.421733
-1663.274316
-1558.697188
-1713.072948
-1673.234043
-1618.455547
-1942.146657
-1678.213906
-1439.180471
-2091.542553
-2689.126140
-2958.038754
-2709.045593
1040.791413
8062.398556
13151.818769
15482.394757
11125.014438
263.932751
-4571.514438
-2778.763678
-1414.281155
-1608.495821
-1553.717325
-184.254939
-512.925912
-1772.831307
-1225.046353
-836.617021
-1384.401976
-1200.147036
-612.523176
-906.335106
-1469.059650
-921.274696
-941.194149
-1384.401976
-946.174012
-512.925912
-587.623860
-1000.952508
-483.046733
-89.637538
-443.207827
-308.751520
149.395897
-448.187690
-602.563450
577.664134
-69.718085
-652.362082
-468.107143
-497.986322
169.315350
388.429331
746.979483
1035.811550
1045.771277
1045.771277
801.757979
1040.791413
1737.972264
1553.717325
801.757979
1852.509119
2489.931611
1862.468845
2783.743541
2982.938070
2201.099544
2928.159574
3530.723024
3470.964666
3834.494681
4193.044833
3605.420973
3286.709726
3650.239742
3231.931231
2435.153116
2036.764058
1688.173632
727.060030
-99.597264
9.959726
-209.154255
-801.757979
-552.764818
-1105.529635
-2245.918313
-1329.623480
-707.140578
-1105.529635
-981.033055
-1513.878419
-1728.012538
-1618.455547
-1459.099924
-1005.932371
-1264.885258
-1474.039514
-941.194149
-886.415653
-1359.502660
-1045.771277
-622.482903
-1354.522796
-1832.589666
-916.294833
-1140.388678
-1269.865122
-966.093465
-1419.261018
-891.395517
-771.878799
-1394.361702
-1384.401976
-682.241261
-931.234422
-1742.952128
-1000.952508
-1060.710866
-1837.569529
-1304.724164
-667.301672
-921.274696
-1728.012538
-1075.650456
-1215.086626
-2265.837766
-1090.590046
-1010.912234
-1653.314590
-1225.046353
-1289.784574
-1474.039514
-1932.186930
-1772.831307
-1025.851824
-1533.797872
-1488.979103
-1454.120061
-2300.696809
-1996.925152
-1354.522796
-1075.650456
-1723.032675
-1444.160334
-746.979483
-1548.737462
-1538.777736
-841.596884
-433.248100
-572.684271
-313.731383
224.093845
39.838906
-164.335486
9.959726
288.832067
-866.496201
-1150.348404
-592.603723
-1683.193769
-1698.133359
-1772.831307
-2206.079407
-1404.321429
-1329.623480
-1932.186930
-1962.066109
-1593.556231
-1957.086246
-1907.287614
-1633.395137
-1927.207067
-1792.750760
-1603.515957
-1713.072948
-2350.495441
-3266.790274
-3306.629179
-1827.609802
2923.179711
9367.122720
14102.972644
14605.938830
7743.687310
-1115.489362
-4476.897036
-2918.199848
-1429.220745
-1329.623480
-1140.388678
-1045.771277
-1025.851824
-1389.381839
-1230.026216
-776.858663
-836.617021
-1150.348404
-1459.099924
-1100.549772
-1115.489362
-488.026596
-388.429331
-761.919073
-373.489742
-1449.140198
-1812.670213
-433.248100
149.395897
-209.154255
-453.167553
9.959726
293.811930
-1533.797872
-1200.147036
741.999620
-89.637538
39.838906
682.241261
94.617401
94.617401
592.603723
-74.697948
-712.120441
527.865502
1538.777736
1210.106763
1135.408815
1762.871581
1404.321429
214.134119
1050.751140
2913.219985
2992.897796
2853.461626
3376.347264
2823.582447
3296.669453
4267.742781
2559.649696
2405.273936
3824.534954
3585.501520
3286.709726
3246.870821
3152.253419
1937.166793
552.764818
1374.442249
1274.844985
124.496581
298.791793
24.899316
-692.200988
-1060.710866
-2001.905015
-2196.119681
-961.113602
-687.221125
-1244.965805
-1429.220745
-956.133739
-1249.945669
-2395.314210
-1548.737462
-981.033055
-2290.737082
-1703.113222
-816.697568
-1618.455547
-1678.213906
-1583.596505
-1658.294453
-1668.254179
-1225.046353
-507.946049
-916.294833
-861.516337
-717.100304
-1419.261018
-1015.892097
-702.160714
-1563.677052
-1533.797872
-871.476064
-961.113602
-1230.026216
-1035.811550
-1747.931991
-1922.227204
-1190.187310
-1205.126900
-946.174012
-1289.784574
-1364.482523
-841.596884
-2644.307371
-2455.072568
-244.013298
-956.133739
-1404.321429
-956.133739
-761.919073
-1742.952128
-2649.287234
-1210.106763
-1210.106763
-1703.113222
-612.523176
-587.623860
-1469.059650
-1643.354863
-1115.489362
-1369.462386
-1005.932371
4.979863
-737.019757
-577.664134
697.180851
-1274.844985
-1713.072948
986.012918
612.523176
-507.946049
0.000000
632.442629
-1239.985942
-2948.079027
-1309.704027
-1120.469225
-1892.348024
-1249.945669
-1230.026216
-1917.247340
-2101.502280
-1872.428571
-1981.985562
-2250.898176
-1653.314590
-1464.079787
-1957.086246
-1269.865122
-1274.844985
-3212.011778
-3192.092325
-2285.757219
-2450.092705
1653.314590
8445.848024
13062.181231
15766.246960
11279.390198
761.919073
-4227.903875
-3241.890957
-1892.348024
-1235.006079
-1195.167173
-1404.321429
-1548.737462
-1548.737462
-607.543313
-159.355623
-971.073328
-801.757979
-273.892477
-806.737842
-871.476064
24.899316
-1314.683891
-1897.327888
-263.932751
-288.832067
-667.301672
-258.952888
109.556991
-478.066869
-597.583587
64.738222
-592.603723
-1349.542933
-328.670973
766.898936
338.630699
522.885638
552.764818
169.315350
433.248100
776.858663
866.496201
597.583587
1259.905395
1354.522796
1205.126900
1767.851444
1787.770897
1339.583207
2076.602964
3092.495061
2609.448328
2584.549012
3406.226444
3446.065350
2928.159574
3256.830547
4217.944149
4023.729483
4232.883739
4252.803191
2997.877660
3754.816869
4018.749620
3152.253419
2972.978343
2569.609422
2071.623100
1633.395137
423.288374
-732.039894
-194.214666
-124.496581
-194.214666
-239.033435
-931.234422
-876.455927
-677.261398
-1329.623480
-1309.704027
-1005.932371
-2076.602964
-2056.683511
-816.697568
-607.543313
-1120.469225
-1150.348404
-741.999620
-1603.515957
-1847.529255
-926.254559
-1215.086626
-1065.690729
-343.610562
-408.348784
-1329.623480
-1404.321429
-577.664134
-901.355243
-1155.328267
-891.395517
-717.100304
-667.301672
-746.979483
-1200.147036
-1543.757599
-921.274696
-846.576748
-1314.683891
-1150.348404
-751.959347
-458.147416
-2081.582827
-2315.636398
-901.355243
-1927.207067
-1359.502660
-313.731383
-1205.126900
-1185.207447
-562.724544
-1767.851444
-2430.173252
-1180.227584
-1045.771277
-1369.462386
-1095.569909
-781.838526
-1394.361702
-1772.831307
-916.294833
-1055.731003
-1444.160334
-1080.630319
-1284.804711
-1553.717325
-771.878799
-781.838526
-1648.334726
-298.791793
1010.912234
468.107143
253.973024
-24.899316
-164.335486
-64.738222
-134.456307
-293.811930
-1180.227584
-1991.945289
-1728.012538
-1877.408435
-2096.522416
-1010.912234
-956.133739
-1912.267477
-1648.334726
-1787.770897
-2893.300532
-2853.461626
-1568.656915
-1040.791413
-1479.019377
-1020.871960
-906.335106
-2211.059271
-2664.226824
-3062.615881
-1205.126900
6304.506839
13161.778495
16548.085486
14526.261018
4979.863222
-2733.944909
-3714.977964
-1797.730623
-1175.247720
-2325.596125
-1299.744301
0.000000
-771.878799
-1294.764438
-438.227964
-1369.462386
-2958.038754
-682.241261
672.281535
-483.046733
-522.885638
-94.617401
-443.207827
-612.523176
-119.516717
-333.650836
-1354.522796
-821.677432
388.429331
-418.308511
-398.389058
169.315350
-488.026596
-502.966185
647.382219
1060.710866
-89.637538
69.718085
1030.831687
139.436170
248.993161
1538.777736
1025.851824
986.012918
1444.160334
1379.422112
1488.979103
463.127280
1000.952508
2235.958587
2325.596125
3037.716565
2868.401216
2639.327508
3336.508359
3944.051672
3356.427812
3580.521657
4631.272796
4093.447568
3983.890578
4476.897036
4143.246201
3685.098784
2420.213526
1942.146657
2360.455167
2166.240502
2176.200228
1299.744301
393.409195
577.664134
318.711246
-1125.449088
-1354.522796
-617.503040
-981.033055
-682.241261
-483.046733
-1239.985942
-1389.381839
-826.657295
-1030.831687
-1867.448708
-1698.133359
-1628.415274
-1235.006079
-552.764818
-751.959347
-1115.489362
-1195.167173
-990.992781
-692.200988
-906.335106
-781.838526
-637.422492
-1409.301292
-1518.858283
-1284.804711
-1040.791413
-871.476064
-1015.892097
-796.778116
-841.596884
-941.194149
-1020.871960
-1319.663754
-995.972644
-687.221125
-946.174012
-995.972644
-891.395517
-1035.811550
-1962.066109
-1942.146657
-1035.811550
-1225.046353
-1190.187310
-990.992781
-1145.368541
-2216.039134
-1837.569529
-542.805091
-1384.401976
-1329.623480
-667.301672
-1225.046353
-1324.643617
-931.234422
-1165.287994
-1274.844985
-1035.811550
-1135.408815
-1479.019377
-1175.247720
-328.670973
-647.382219
-866.496201
-54.778495
149.395897
-159.355623
114.536854
-244.013298
-836.617021
298.791793
378.469605
-572.684271
-732.039894
-512.925912
-1125.449088
-2196.119681
-1593.556231
-1130.428951
-2116.441869
-1668.254179
-617.503040
-1996.925152
-2221.018997
-1344.563070
-1728.012538
-1264.885258
-1130.428951
-1693.153495
-1508.898556
-1479.019377
-2559.649696
-3525.743161
-2191.139818
2554.669833
8749.619681
13714.543313
16134.756839
11264.450608
751.959347
-3580.521657
-2430.173252
-2255.878040
-826.657295
39.838906
-1354.522796
-1454.120061
-547.784954
-702.160714
-1319.663754
-602.563450
-253.973024
-1474.039514
-1145.368541
-313.731383
-702.160714
-761.919073
-258.952888
-657.341945
-961.113602
-388.429331
-826.657295
-722.080167
89.637538
-124.496581
-821.677432
-707.140578
-244.013298
29.879179
343.610562
552.764818
816.697568
229.073708
179.275076
667.301672
338.630699
169.315350
667.301672
1095.569909
1060.710866
1334.603343
1897.327888
956.133739
258.952888
2524.790653
2474.992021
1518.858283
3650.239742
3744.857143
2445.112842
3540.682751
4133.286474
3635.300152
3939.071809
3764.776596
3924.132219
4322.521277
4322.521277
3934.091945
2943.099164
3057.636018
2295.716945
154.375760
293.811930
1055.731003
502.966185
144.416033
263.932751
-9.959726
-1210.106763
-1723.032675
-1040.791413
-896.375380
-891.395517
-522.885638
-1010.912234
-1518.858283
-433.248100
-866.496201
-2873.381079
-1927.207067
-642.402356
-1434.200608
-1359.502660
-388.429331
-801.757979
-1832.589666
-1479.019377
-856.536474
-871.476064
-971.073328
-836.617021
-1015.892097
-1668.254179
-1244.965805
-1050.751140
-871.476064
-29.879179
-921.274696
-1737.972264
-1244.965805
-986.012918
-841.596884
-936.214286
-1145.368541
-1060.710866
-1145.368541
-1503.918693
-1180.227584
-622.482903
-926.254559
-1449.140198
-1409.301292
-1145.368541
-1115.489362
-1244.965805
-1713.072948
-1668.254179
-1200.147036
-921.274696
-746.979483
-1404.321429
-1503.918693
-692.200988
-468.107143
-821.677432
-866.496201
-557.744681
-1055.731003
-1623.435410
-881.435790
318.711246
393.409195
258.952888
712.120441
911.314970
293.811930
-64.738222
373.489742
-29.879179
-278.872340
-139.436170
-761.919073
-841.596884
-592.603723
-1429.220745
-1698.133359
-1025.851824
-1000.952508
-1200.147036
-791.798252
-224.093845
-1533.797872
-2186.159954
-408.348784
-776.858663
-1264.885258
-293.811930
-702.160714
-1882.388298
-2255.878040
-712.120441
3351.447948
8918.935030
14317.106763
16154.676292
8973.713526
-821.677432
-4188.064970
-2997.877660
-687.221125
-74.697948
-288.832067
303.771657
124.496581
-851.556611
-383.449468
0.000000
-737.019757
-333.650836
323.691109
169.315350
-288.832067
59.758359
398.389058
-308.751520
-398.389058
54.778495
239.033435
104.577128
-851.556611
204.174392
1080.630319
84.657675
816.697568
707.140578
268.912614
986.012918
946.174012
622.482903
886.415653
1334.603343
1254.925532
1334.603343
1693.153495
1653.314590
1339.583207
1369.462386
1374.442249
1623.435410
2629.367781
2808.642857
2499.891337
2918.199848
2913.219985
2470.012158
2569.609422
3705.018237
4432.078267
3844.454407
4476.897036
4780.668693
4073.528116
4521.715805
5044.601444
4188.064970
3341.488222
3769.756459
3147.273556
2221.018997
2305.676672
1797.730623
916.294833
532.845365
164.335486
-244.013298
-637.422492
-313.731383
69.718085
-1075.650456
-592.603723
-124.496581
-1215.086626
-358.550152
-189.234802
-1020.871960
-911.314970
-104.577128
-258.952888
-1757.891717
-1304.724164
-348.590426
-507.946049
-413.328647
-298.791793
-522.885638
-1259.905395
-1309.704027
-577.664134
-806.737842
-911.314970
-443.207827
-493.006459
-179.275076
-363.530015
-1215.086626
-871.476064
-667.301672
-1080.630319
-692.200988
-363.530015
-816.697568
-1080.630319
-737.019757
-697.180851
-1070.670593
-657.341945
-941.194149
-2026.804331
-1633.395137
-1160.308131
-881.435790
-746.979483
-826.657295
-373.489742
-861.516337
-1603.515957
-1105.529635
-741.999620
-871.476064
-846.576748
-901.355243
-1249.945669
-707.140578
-497.986322
-2659.246960
-2395.314210
557.744681
338.630699
-712.120441
214.134119
572.684271
-333.650836
-1175.247720
139.436170
1035.811550
408.348784
567.704407
-39.838906
-1080.630319
-1095.569909
-1150.348404
-1732.992401
-1508.898556
-1454.120061
-2031.784195
-1479.019377
-493.006459
-856.536474
-2225.998860
-1862.468845
-1005.932371
-1947.126520
-1698.133359
-801.757979
-1434.200608
-1882.388298
-2380.374620
-3062.615881
-741.999620
5009.742401
11259.470745
15168.663374
14800.153495
7185.942629
-1852.509119
-3391.286854
-1877.408435
-1548.737462
-1354.522796
-557.744681
-169.315350
-946.174012
-677.261398
79.677812
-1040.791413
-1862.468845
-602.563450
-263.932751
-667.301672
-109.556991
-109.556991
-483.046733
-488.026596
-881.435790
-1095.569909
-463.127280
94.617401
-144.416033
-278.872340
398.389058
637.422492
-557.744681
-497.986322
612.523176
-129.476444
-94.617401
1060.710866
632.442629
9.959726
801.757979
1235.006079
483.046733
537.825228
1225.046353
1075.650456
577.664134
1713.072948
2285.757219
1628.415274
2156.280775
1952.106383
1732.992401
3192.092325
4242.843465
3610.400836
3366.387538
3829.514818
3968.950988
3894.253040
3993.850304
4437.058131
3854.414134
3575.541793
3774.736322
3037.716565
1638.375000
582.643997
1374.442249
1065.690729
443.207827
896.375380
54.778495
-433.248100
-64.738222
-1065.690729
-1962.066109
-662.321809
-532.845365
-1469.059650
-951.153875
-836.617021
-1648.334726
-1852.509119
-1508.898556
-1493.958967
-1239.985942
-423.288374
-737.019757
-1414.281155
-647.382219
-1349.542933
-2380.374620
-1040.791413
-702.160714
-1130.428951
-981.033055
-1000.952508
-1095.569909
-1065.690729
-1205.126900
-1962.066109
-1508.898556
-906.335106
-717.100304
-771.878799
-1279.824848
-433.248100
-1200.147036
-2400.294073
-990.992781
-687.221125
-1523.838146
-1324.643617
-936.214286
-1160.308131
-1518.858283
-1508.898556
-1339.583207
-1663.274316
-1309.704027
-776.858663
-1483.999240
-1454.120061
-1792.750760
-1618.455547
-333.650836
-886.415653
-1344.563070
-1145.368541
-995.972644
-811.717705
-1598.536094
-1528.818009
-861.516337
-1732.992401
-1259.905395
44.818769
-159.355623
-527.865502
-318.711246
453.167553
303.771657
268.912614
507.946049
-244.013298
-841.596884
-507.946049
-1284.804711
-1986.965426
-1225.046353
-1170.267857
-1732.992401
-1777.811170
-1030.831687
-1060.710866
-1877.408435
-2151.300912
-1737.972264
-1817.650076
-1175.247720
-826.657295
-1877.408435
-1429.220745
-1523.838146
-3431.125760
-3087.515198
358.550152
5726.842705
12369.980243
16861.816869
14461.522796
4994.802812
-2604.468465
-2659.246960
-1668.254179
-1464.079787
-239.033435
-672.281535
-1608.495821
-791.798252
-338.630699
-1259.905395
-737.019757
-189.234802
-1150.348404
-413.328647
308.751520
-702.160714
-1075.650456
114.536854
388.429331
-1130.428951
-527.865502
263.932751
-1090.590046
-373.489742
727.060030
124.496581
-597.583587
-263.932751
702.160714
378.469605
373.489742
527.865502
403.368921
592.603723
727.060030
811.717705
936.214286
1170.267857
1324.643617
617.503040
697.180851
2355.475304
2191.139818
1454.120061
2524.790653
3361.407675
2723.985182
2450.092705
2848.481763
2963.018617
3914.172492
4491.836626
4063.568389
4362.360182
4964.923632
4920.104863
3983.890578
4103.407295
4840.427052
3416.186170
3276.750000
3256.830547
1822.629939
1434.200608
916.294833
637.422492
149.395897
79.677812
164.335486
-981.033055
-1235.006079
-303.771657
-268.912614
-931.234422
-971.073328
-667.301672
-582.643997
-712.120441
-876.455927
-1085.610182
-1050.751140
-901.355243
-1434.200608
-1409.301292
-468.107143
-741.999620
-1020.871960
-1025.851824
-1210.106763
-1070.670593
-1618.455547
-921.274696
-368.509878
-1080.630319
-293.811930
-657.341945
-2041.743921
-1090.590046
-801.757979
-1538.777736
-926.254559
-493.006459
-1060.710866
-1643.354863
-1000.952508
-1125.449088
-1947.126520
-562.724544
-184.254939
-1962.066109
-2066.643237
-1379.422112
-1553.717325
-1005.932371
-682.241261
-2016.844605
-1907.287614
-906.335106
-1538.777736
-1264.885258
-1010.912234
-776.858663
-1100.549772
-2340.535714
-1299.744301
-746.979483
-1732.992401
-1344.563070
-527.865502
-995.972644
-841.596884
-403.368921
-1259.905395
-517.905775
29.879179
-677.261398
-134.456307
-4.979863
-69.718085
-129.476444
-791.798252
-1479.019377
-1603.515957
-995.972644
-1185.207447
-1648.334726
-1623.435410
-1653.314590
-1444.160334
-1772.831307
-1688.173632
-1235.006079
-1957.086246
-2928.159574
-2559.649696
-1055.731003
-1474.039514
-1942.146657
-1344.563070
-3002.857523
-3127.354103
-383.449468
4377.299772
10308.316869
14496.381839
13734.462766
4845.406915
-3485.904255
-4237.863602
-2883.340805
-1583.596505
-647.382219
-1543.757599
-1429.220745
-821.677432
-1170.267857
-1339.583207
-1090.590046
-468.107143
-1249.945669
-1299.744301
-19.919453
-532.845365
-1155.328267
-647.382219
-821.677432
-1334.603343
-592.603723
-313.731383
-542.805091
-617.503040
-413.328647
-408.348784
-1379.422112
-74.697948
816.697568
-751.959347
-517.905775
1080.630319
896.375380
-672.281535
-104.577128
911.314970
353.570289
816.697568
1628.415274
672.281535
478.066869
1369.462386
527.865502
1249.945669
2599.488602
1349.542933
1324.643617
2440.132979
2778.763678
2768.803951
3406.226444
3346.468085
2788.723404
3645.259878
4193.044833
3904.212766
3934.091945
4252.803191
3655.219605
2903.260258
2992.897796
2863.421353
2141.341185
1693.153495
1120.469225
283.852204
373.489742
781.838526
174.295213
-209.154255
44.818769
89.637538
-333.650836
-428.268237
-204.174392
-647.382219
-1329.623480
-1294.764438
-149.395897
-54.778495
-318.711246
-483.046733
-612.523176
49.798632
-39.838906
-428.268237
-433.248100
-154.375760
-54.778495
-493.006459
-273.892477
0.000000
-821.677432
-751.959347
54.778495
-403.368921
-851.556611
-478.066869
-189.234802
-537.825228
-443.207827
-438.227964
-1488.979103
-1130.428951
-517.905775
-1080.630319
-1314.683891
-976.053191
-771.878799
-1230.026216
-951.153875
-796.778116
-1673.234043
-916.294833
114.536854
-821.677432
-1210.106763
-224.093845
-293.811930
-677.261398
-94.617401
-383.449468
-1230.026216
-1100.549772
-831.637158
-946.174012
-1075.650456
-1643.354863
-1439.180471
-766.898936
-413.328647
-199.194529
-567.704407
214.134119
836.617021
99.597264
303.771657
542.805091
-761.919073
-557.744681
986.012918
-169.315350
-2270.817629
-2330.575988
-1613.475684
-1742.952128
-1802.710486
-1364.482523
-1633.395137
-2748.884498
-2295.716945
-1160.308131
-1967.045973
-2006.884878
-1329.623480
-2270.817629
-2465.032295
-886.415653
-1080.630319
-3575.541793
-4696.011018
-2470.012158
2828.562310
8854.196809
14068.113602
16433.548632
10905.900456
1474.039514
-3311.609043
-3177.152736
-1708.093085
-901.355243
-741.999620
119.516717
712.120441
-776.858663
-1728.012538
-1140.388678
-433.248100
-433.248100
-851.556611
-458.147416
-164.335486
-124.496581
149.395897
-383.449468
-119.516717
1429.220745
796.778116
-737.019757
224.093845
866.496201
-1090.590046
-1200.147036
109.556991
-547.784954
149.395897
722.080167
-886.415653
-373.489742
368.509878
273.892477
483.046733
413.328647
1040.791413
1000.952508
343.610562
253.973024
1060.710866
2051.703647
1872.428571
1424.240881
2440.132979
3456.025076
2967.998480
2390.334347
3112.414514
4775.688830
4277.702508
3012.817249
4402.199088
4999.782675
3585.501520
4053.608663
5074.480623
4222.924012
4501.796353
4437.058131
3157.233283
2813.622720
3351.447948
3167.193009
781.838526
234.053571
1439.180471
343.610562
-622.482903
44.818769
-1040.791413
-1299.744301
-308.751520
463.127280
-84.657675
-1523.838146
184.254939
-786.818389
-2694.106003
-1314.683891
-1299.744301
-1643.354863
-1324.643617
-1802.710486
-1543.757599
-393.409195
-1902.307751
-3142.293693
-263.932751
378.469605
-1454.120061
-1160.308131
-821.677432
-687.221125
-592.603723
-1100.549772
-966.093465
-717.100304
-732.039894
-1135.408815
-1613.475684
-1553.717325
-1668.254179
-1090.590046
-936.214286
-1424.240881
-1444.160334
-1922.227204
-2639.327508
-1663.274316
-1483.999240
-2370.414894
-906.335106
-2036.764058
-2131.381459
-1215.086626
-3142.293693
-4481.876900
-4362.360182
517.905775
1812.670213
-1444.160334
-1374.442249
-1394.361702
-1857.488982
-1962.066109
-1394.361702
-1210.106763
-1464.079787
-831.637158
-2126.401596
-2400.294073
-413.328647
-751.959347
-1842.549392
-712.120441
916.294833
134.456307
-687.221125
-239.033435
-1060.710866
-1239.985942
-1693.153495
-3202.052052
-2823.582447
-2235.958587
-2370.414894
-1205.126900
14.939590
74.697948
-1244.965805
-1424.240881
-786.818389
-2295.716945
-2355.475304
-856.536474
-343.610562
-2669.206687
-4412.158815
-3610.400836
-3007.837386
1972.025836
9177.887918
13689.643997
16000.300532
11408.866641
1668.254179
-4257.783055
-3645.259878
-1230.026216
1110.509498
293.811930
-2216.039134
-1065.690729
-1563.677052
-1543.757599
642.402356
911.314970
-164.335486
159.355623
522.885638
-667.301672
-114.536854
-104.577128
-806.737842
-323.691109
-428.268237
-851.556611
-781.838526
258.952888
821.677432
-348.590426
-189.234802
-4.979863
-1075.650456
-557.744681
-712.120441
-248.993161
-9.959726
94.617401
1195.167173
-14.939590
-532.845365
637.422492
368.509878
-34.859043
1568.656915
1155.328267
303.771657
2206.079407
1508.898556
1493.958967
3441.085486
1474.039514
776.858663
2330.575988
2265.837766
1867.448708
2076.602964
2833.542173
2061.663374
1653.314590
3396.266717
3988.870441
2519.810790
1254.925532
1469.059650
1469.059650
552.764818
-139.436170
418.308511
-74.697948
-1693.153495
-1215.086626
-1239.985942
-2479.971884
-2026.804331
-1030.831687
-1772.831307
-1782.791033
-1593.556231
-2514.830927
-2753.864362
-3515.783435
-2584.549012
-2295.716945
-2569.609422
-2001.905015
-3356.427812
-2504.871201
-1220.066489
-2997.877660
-3441.085486
-2161.260638
-1752.911854
-1459.099924
-1578.616641
-2893.300532
-2972.978343
-1060.710866
-1080.630319
-2738.924772
-2723.985182
-2275.797492
-2405.273936
-2330.575988
-3072.575608
-3884.293313
-3406.226444
-2674.186550
-1035.811550
-1827.609802
-4048.628799
-2878.360942
-2534.750380
-4128.306611
-3789.675912
-1737.972264
-1409.301292
-1354.522796
-512.925912
-2161.260638
-3067.595745
-2689.126140
-2599.488602
-2425.193389
-3007.837386
-2355.475304
-1757.891717
-1259.905395
-443.207827
-1887.368161
-4113.367021
-2953.058891
-1827.609802
-3072.575608
-2704.065729
-1578.616641
-1533.797872
-1459.099924
-1225.046353
-1996.925152
-1454.120061
-129.476444
398.389058
-89.637538
-2201.099544
-2176.200228
-2216.039134
-2763.824088
-2455.072568
-3212.011778
-2151.300912
-2584.549012
-4362.360182
-3595.461246
-3485.904255
-3929.112082
-3446.065350
-2768.803951
-3107.434650
-4257.783055
-3570.561930
-3082.535334
-4078.507979
-4387.259498
-4377.299772
-995.972644
6264.667933
13092.060410
15133.804331
8022.559650
-1673.234043
-5328.453647
-4272.722644
-3630.320289
-4516.735942
-3650.239742
-1977.005699
-2430.173252
-3306.629179
-3615.380699
-2265.837766
383.449468
-1419.261018
-3276.750000
-1115.489362
-2001.905015
-2345.515578
-44.818769
-273.892477
-54.778495
-2230.978723
-3361.407675
-1045.771277
-423.288374
164.335486
-1623.435410
-2285.757219
-1822.629939
-1339.583207
1200.147036
-109.556991
-2798.683131
-3231.931231
-2977.958207
-1887.368161
-1020.871960
-786.818389
258.952888
69.718085
-1882.388298
-2171.220365
-702.160714
84.657675
-1523.838146
-881.435790
956.133739
1563.677052
1493.958967
318.711246
1115.489362
2420.213526
2066.643237
1180.227584
1563.677052
2659.246960
1947.126520
1419.261018
2579.569149
2908.240122
2146.321049
1294.764438
1643.354863
1902.307751
-273.892477
-497.986322
-995.972644
-2365.435030
-1618.455547
-1608.495821
-1244.965805
-1902.307751
-2709.045593
-2081.582827
-1887.368161
-2997.877660
-2967.998480
-1892.348024
-2848.481763
-3117.394377
-2305.676672
-2474.992021
-3007.837386
-3610.400836
-4123.326748
-4033.689210
-3998.830167
-4342.440729
-3560.602204
-4292.642097
-5318.493921
-4337.460866
-4705.970745
-3834.494681
-3854.414134
-5079.460486
-2614.428191
-1742.952128
-2265.837766
-2340.535714
-3416.186170
-1613.475684
-328.670973
-1623.435410
-901.355243
-532.845365
-2290.737082
-2604.468465
-1872.428571
-2255.878040
-2330.575988
-1996.925152
-2300.696809
-2938.119301
-2972.978343
-1952.106383
-1553.717325
-2345.515578
-2594.508739
-1797.730623
-1409.301292
-1852.509119
-2445.112842
-1867.448708
-1872.428571
-2534.750380
-1533.797872
-1210.106763
-1459.099924
-1180.227584
-1498.938830
-84.657675
562.724544
-184.254939
881.435790
1618.455547
1130.428951
-273.892477
-542.805091
-109.556991
-871.476064
-1230.026216
-781.838526
-667.301672
164.335486
363.530015
-1334.603343
-1668.254179
-527.865502
-288.832067
-1678.213906
-1449.140198
-154.375760
-1010.912234
-1349.542933
-39.838906
-677.261398
-2679.166413
-2081.582827
-522.885638
2360.455167
9018.532295
15532.193389
17877.708967
12439.698328
1678.213906
-3700.038374
-2051.703647
179.275076
239.033435
-29.879179
622.482903
517.905775
-1369.462386
-851.556611
2066.643237
358.550152
-1663.274316
-388.429331
-722.080167
-293.811930
1070.670593
1000.952508
2061.663374
1877.408435
