0.0
0.0
0.0
0.0
0.0
0.0
0.0
0.0
0.0
0.0
0.0
0.0
0.0
0.0
0.0
0.0
0.0
0.0
0.0
0.0
0.0
0.0
0.0
0.0
0.0
0.0
0.0
0.0
0.0
0.0
0.0
0.0
0.0
0.0
0.0
0.0
0.0
0.0
0.0
0.0
0.0
0.0
0.0
0.0
0.0
0.0
0.0
0.0
0.0
0.0
0.0
0.0
0.0
0.0
0.0
0.0
0.0
0.0
0.0
0.0
0.0
0.0
0.0
0.0
0.0
0.0
0.0
0.0
0.0
0.0
0.0
0.0
0.0
0.0
0.0
0.0
0.0
0.0
0.0
0.0
0.0
0.0
0.0
0.0
0.0
0.0
0.0
0.0
0.0
0.0
0.0
0.0
0.0
0.0
0.0
0.0
0.0
0.0
0.0
0.0
0.0
0.0
0.0
0.0
0.0
0.0
0.0
0.0
0.0
0.0
0.0
0.0
0.0
0.0
0.0
0.0
0.0
0.0
0.0
0.0
0.0
0.0
0.0
0.0
0.0
0.0
0.0
0.0
0.0
0.0
0.0
0.0
0.0
0.0
0.0
0.0
0.0
0.0
0.0
0.0
0.0
0.0
0.0
0.0
0.0
0.0
0.0
0.0
0.0
0.0
0.0
0.0
0.0
0.0
0.0
0.0
0.0
0.0
0.0
0.0
0.0
0.0
0.0
0.0
0.0
0.0
0.0
0.0
0.0
0.0
0.0
0.0
0.0
0.0
0.0
0.0
0.0
0.0
0.0
0.0
0.0
0.0
0.0
0.0
0.0
0.0
0.0
0.0
0.0
0.0
0.0
0.0
0.0
0.0
0.0
0.0
0.0
0.0
0.0
0.0
-108356.8438449848
81605.01861702127
-140213.02887537994
58652.82902735562
-56083.21960486322
57387.943768996956
155536.06800911852
-72666.1641337386
-29311.474924012156
-130029.20858662613
137678.27849544073
-33145.96960486322
-159355.62310030396
105802.17401215805
-82869.90387537994
128759.34346504559
-105822.09346504559
22942.229863221884
-44619.574468085106
-57373.00417933131
116000.93389057751
-11478.584726443769
-75220.83396656535
35685.69984802431
15298.139817629179
-103262.44376899695
-19137.614361702126
-108371.78343465045
-107086.97872340425
-3834.4946808510635
29311.474924012156
76490.69908814589
146607.17325227964
-152991.35790273556
44614.59460486322
-76490.69908814589
76485.719224924
-112196.31838905775
-108361.82370820668
96883.23898176292
-152991.35790273556
-58642.86930091185
81590.07902735562
85404.65425531914
137678.27849544073
-50993.799392097266
96878.25911854103
-109651.60828267477
-119835.42857142857
35695.65957446808
85404.65425531914
109631.68882978724
-63747.22910334346
-94348.4886018237
116005.91375379938
96888.2188449848
31866.144756838905
24212.094984802432
56093.17933130699
79040.38905775076
22937.25
-49723.934270516715
-150431.70820668692
-130044.14817629178
-24232.01443768997
130034.18844984802
136403.43351063828
-119845.38829787234
58642.86930091185
-135138.54825227964
-8938.854483282674
-116015.87348024316
107086.97872340425
103252.48404255319
147877.03837386018
16577.964665653493
96883.23898176292
131304.05357142858
-2549.689969604863
-121115.25341945289
-7659.029635258358
-156800.9532674772
-59912.7344224924
45889.43958966565
154251.26329787233
61197.5391337386
-68846.60904255319
132573.91869300912
161900.33320668692
-114741.02849544073
-127494.45820668692
-30601.25949848024
101987.59878419453
68831.66945288754
-79050.34878419453
147882.01823708205
-34430.77431610942
124924.84878419452
-116010.89361702127
-77770.52393617021
146592.233662614
31866.144756838905
-135133.56838905773
89224.20934650456
-80335.15349544073
-150426.72834346505
85434.53343465045
48483.94832826748
-117216.02051671733
145402.04635258357
-89214.24962006079
75210.87424012157
-77775.5037993921
-119845.38829787234
-9.959726443768997
73941.00911854103
141502.813449848
103257.46390577508
-61192.559270516715
-122390.09840425532
-146617.13297872338
-15303.119680851063
80315.23404255319
149151.8833586626
39520.19452887538
24227.034574468085
-48449.08928571428
25491.919832826745
-63742.24924012158
-131309.03343465045
-36980.46428571428
135133.56838905773
8928.894756838905
-43354.68920972644
-116015.87348024316
-81585.09916413373
-160635.44794832825
-26781.70440729483
-5094.400075987842
-24222.0547112462
108356.8438449848
131314.01329787233
-108356.8438449848
145327.34840425532
-38245.349544072946
152991.35790273556
-10203.739741641337
-29326.41451367781
63752.20896656535
47174.24430091185
-113466.1835106383
-31866.144756838905
-77755.58434650456
36975.4844224924
15308.099544072948
54833.27393617021
130039.16831306991
-101982.61892097264
34440.73404255319
76505.63867781154
-54813.354483282674
6389.164513677812
-98148.12424012157
-156795.97340425532
137698.19794832825
62487.323708206684
66301.89893617021
-160620.5083586626
-52253.70478723404
-73931.04939209727
-76485.719224924
-5094.400075987842
128764.32332826748
25496.899696048633
-7649.069908814589
152986.3780395137
16568.004939209724
79035.40919452887
161910.2929331307
57368.02431610942
127474.53875379938
131304.05357142858
-2554.6698328267476
-8933.87462006079
77760.56420972644
44619.574468085106
-142792.5980243161
100702.79407294832
101987.59878419453
47164.28457446808
-118575.52317629178
72666.1641337386
137683.2583586626
109626.70896656535
132578.898556231
17847.82978723404
38240.369680851065
12743.46998480243
-132588.85828267477
-85419.5938449848
49713.974544072946
107081.99886018237
-3829.514817629179
-121120.23328267477
35690.6797112462
-163180.15805471124
-127494.45820668692
-14033.254559270516
114736.04863221884
-86699.41869300911
-156815.89285714284
-28051.569528875378
-85419.5938449848
104527.32902735562
43339.749620060786
155531.08814589665
-24232.01443768997
-107096.93844984802
82864.92401215805
-109641.648556231
20387.560030395136
72661.18427051671
-160630.46808510637
133848.76367781154
33140.98974164134
-53543.48936170212
40785.07978723404
19112.715045592704
160630.46808510637
-137688.2382218845
-147896.9578267477
-114746.00835866261
14023.294832826747
5094.400075987842
-130039.16831306991
128759.34346504559
7644.090045592705
-58652.82902735562
44619.574468085106
99432.92895136778
-155541.04787234042
-149156.8632218845
147882.01823708205
-62477.363981762916
-128764.32332826748
103267.42363221884
82864.92401215805
-87974.26367781154
-61192.559270516715
-94338.52887537994
-7664.009498480243
-147886.99810030396
138958.10334346505
151696.5934650456
123654.98366261397
126209.65349544073
-91798.79863221884
100702.79407294832
99437.90881458967
107081.99886018237
-105827.07332826748
89234.16907294832
-94343.50873860181
130024.22872340425
-33155.92933130699
59917.71428571428
-3834.4946808510635
105802.17401215805
-149161.84308510637
80305.27431610943
-48459.04901215805
91808.75835866261
98212.86246200607
-122325.36018237082
-58583.11094224924
-42044.985182370816
87949.36436170213
65002.154635258354
29321.434650455925
121105.29369300911
-24232.01443768997
101987.59878419453
100712.7537993921
132573.91869300912
17842.849924012156
-10198.759878419452
-145337.3081306991
-72676.12386018237
-21672.364741641337
-151706.55319148937
-135143.5281155015
105812.13373860181
65022.07408814589
-20407.479483282674
-113466.1835106383
52273.62424012158
-80320.21390577508
-86694.43882978724
36975.4844224924
-77770.52393617021
124929.8286474164
123664.94338905775
-149156.8632218845
30591.299772036473
-99437.90881458967
-119830.44870820668
61192.559270516715
113461.2036474164
67576.74392097264
11478.584726443769
-70126.43389057751
30601.25949848024
86699.41869300911
-33150.949468085106
-58642.86930091185
-57358.06458966565
48449.08928571428
146607.17325227964
-20387.560030395136
-112176.39893617021
107091.95858662613
-25486.93996960486
-110901.55395136778
29326.41451367781
-76480.73936170213
110931.43313069908
-59907.754559270514
80325.19376899696
-80300.29445288754
85429.55357142857
58652.82902735562
-33131.03001519757
21692.284194528875
-126204.67363221884
122395.0782674772
-96873.27925531914
135138.54825227964
160630.46808510637
-96883.23898176292
135133.56838905773
118555.60372340425
-122385.11854103343
-90513.99392097264
1269.865121580547
17842.849924012156
-96888.2188449848
-159360.60296352583
43339.749620060786
-67566.78419452887
137678.27849544073
-39535.134118541035
-1279.824848024316
-90513.99392097264
116000.93389057751
11468.625
-53543.48936170212
-87974.26367781154
141497.83358662613
-44619.574468085106
-137688.2382218845
136398.4536474164
59917.71428571428
99437.90881458967
-34430.77431610942
-109641.648556231
75215.85410334346
-33155.92933130699
43339.749620060786
133858.72340425532
-47174.24430091185
-80325.19376899696
-28051.569528875378
25496.899696048633
3814.575227963526
34415.83472644377
20402.49962006079
146602.19338905773
-15308.099544072948
30596.279635258357
47164.28457446808
-109646.62841945289
49718.954407294834
-56098.159194528875
-80325.19376899696
-79045.36892097264
62467.40425531915
-119845.38829787234
-82874.88373860181
-105812.13373860181
98158.08396656535
-96903.15843465045
-114741.02849544073
118560.58358662613
-137693.21808510637
-68851.58890577508
127484.49848024316
39515.2146656535
-94348.4886018237
-56093.17933130699
-155536.06800911852
-150446.64779635257
10198.759878419452
93063.68389057751
-12763.38943768997
-53548.46922492401
116015.87348024316
121105.29369300911
86684.47910334346
-40795.03951367781
91788.83890577508
-113466.1835106383
50998.77925531915
-16572.98480243161
130024.22872340425
-39530.15425531915
28046.589665653493
63732.28951367781
130024.22872340425
52268.64437689969
82859.94414893616
38235.38981762918
57363.04445288754
-121115.25341945289
-22962.149316109422
-21687.30433130699
-84144.74886018237
-67576.74392097264
65007.13449848024
-144057.48328267477
-21682.324468085106
-71411.2386018237
5094.400075987842
150436.68806990882
81609.99848024316
38290.16831306991
56157.91755319149
116055.71238601823
146607.17325227964
141492.85372340426
90504.03419452887
73926.06952887538
57363.04445288754
-15303.119680851063
-99452.84840425532
-59922.69414893617
31876.104483282674
85404.65425531914
70106.51443768997
39525.174392097266
73941.00911854103
160620.5083586626
110911.51367781154
-25501.879559270517
26761.784954407292
-81595.05889057751
-91788.83890577508
25491.919832826745
-105822.09346504559
116010.89361702127
-21677.34460486322
160620.5083586626
62467.40425531915
-108361.82370820668
-43354.68920972644
-136413.39323708205
-65017.09422492401
-7659.029635258358
-3834.4946808510635
-95608.39399696048
-159355.62310030396
-77775.5037993921
-156805.9331306991
62472.38411854103
113456.22378419452
17847.82978723404
-30591.299772036473
-12753.4297112462
42069.88449848024
116020.85334346505
-118560.58358662613
-38250.329407294834
22957.169452887538
89249.10866261397
-123659.96352583586
-75215.85410334346
140242.90805471124
130039.16831306991
-104537.28875379938
8938.854483282674
-96878.25911854103
-29316.45478723404
58657.80889057751
-43334.769756838905
117290.71846504559
-133853.74354103341
-100702.79407294832
144062.46314589665
12748.449848024316
-155526.10828267477
22952.189589665653
122375.15881458965
0.0
79040.38905775076
65002.154635258354
50988.81952887538
8928.894756838905
-65027.05395136778
138948.14361702127
-154261.2230243161
-62477.363981762916
-48459.04901215805
154251.26329787233
-50998.77925531915
-56108.11892097264
122375.15881458965
100707.77393617021
-42084.82408814589
39510.23480243161
-50998.77925531915
-2559.649696048632
-114750.98822188449
-52278.60410334346
-36975.4844224924
156795.97340425532
-114746.00835866261
116010.89361702127
-81600.0387537994
66281.97948328267
56093.17933130699
15293.159954407294
-59932.65387537994
-136413.39323708205
-8928.894756838905
25486.93996960486
14018.314969604862
-94338.52887537994
-127494.45820668692
24212.094984802432
8923.91489361702
123654.98366261397
105802.17401215805
-16577.964665653493
67566.78419452887
155516.148556231
130024.22872340425
26776.724544072946
-87974.26367781154
30586.31990881459
-84139.76899696048
142777.65843465045
-77780.48366261397
-77770.52393617021
15298.139817629179
10188.800151975684
-39530.15425531915
94338.52887537994
-136418.37310030396
28036.629939209724
82864.92401215805
33140.98974164134
86674.5193768997
-84144.74886018237
65017.09422492401
-12763.38943768997
-77770.52393617021
101992.5786474164
25491.919832826745
-40804.99924012158
-118560.58358662613
-161910.2929331307
-161915.27279635257
20397.519756838905
-67571.76405775076
-149166.82294832825
-38255.309270516715
38240.369680851065
-81605.01861702127
-82879.8636018237
76485.719224924
-24236.994300911854
-112201.29825227964
144052.50341945287
119825.4688449848
-54838.25379939209
-28061.529255319147
133853.74354103341
22937.25
-136423.35296352583
142777.65843465045
89229.18920972644
-146627.09270516716
5089.420212765957
-133863.7032674772
-8918.935030395136
43384.56838905775
100772.51215805471
-114691.22986322187
-70101.53457446808
-19132.63449848024
138938.1838905775
-1294.7644376899696
77760.56420972644
93058.70402735562
-63757.18882978723
145322.36854103341
-53548.46922492401
119825.4688449848
-82879.8636018237
-20402.49962006079
110906.53381458967
-63757.18882978723
-35705.61930091185
20392.53989361702
-15313.079407294832
-118570.54331306991
14023.294832826747
-54828.29407294832
-158090.7378419453
68841.6291793313
108356.8438449848
-105827.07332826748
72661.18427051671
99437.90881458967
-159365.5828267477
59912.7344224924
126209.65349544073
117275.77887537994
151696.5934650456
24227.034574468085
-108366.80357142857
77755.58434650456
-140232.94832826746
28046.589665653493
-154266.20288753798
87964.30395136778
8928.894756838905
62462.42439209726
-105817.1136018237
159360.60296352583
22947.20972644377
127479.51861702127
-85409.63411854103
-70111.49430091186
-30601.25949848024
-140227.9684650456
-38235.38981762918
140232.94832826746
-121110.273556231
61207.49886018237
-47164.28457446808
131309.03343465045
-93053.72416413373
117295.69832826748
30596.279635258357
-44614.59460486322
121125.21314589665
-101987.59878419453
-96893.19870820668
-124929.8286474164
-132583.87841945287
81585.09916413373
21672.364741641337
-87969.28381458967
103252.48404255319
19117.69490881459
116010.89361702127
141497.83358662613
154241.30357142855
-130039.16831306991
52263.66451367781
91773.89931610941
-127489.47834346505
68841.6291793313
10188.800151975684
-130039.16831306991
-26776.724544072946
-86704.398556231
84134.7891337386
12753.4297112462
151701.57332826746
-79050.34878419453
77765.54407294832
-159355.62310030396
36965.52469604863
127479.51861702127
123659.96352583586
54813.354483282674
-122390.09840425532
-116005.91375379938
-152986.3780395137
-52283.58396656535
131309.03343465045
-131309.03343465045
-156815.89285714284
-86694.43882978724
-59917.71428571428
-5109.339665653495
-100722.71352583586
70116.47416413373
21667.384878419452
-116025.83320668692
-117290.71846504559
96883.23898176292
-103277.38335866261
-52278.60410334346
39515.2146656535
63732.28951367781
123650.00379939209
-76495.67895136778
-99447.86854103343
-85434.53343465045
114726.08890577508
43339.749620060786
103247.5041793313
141497.83358662613
-146612.1531155015
105797.19414893616
-91808.75835866261
124924.84878419452
95603.4141337386
-5119.299392097264
126199.69376899695
38240.369680851065
-127499.4380699088
147872.05851063828
-133863.7032674772
93053.72416413373
25486.93996960486
-45899.39931610942
-49728.9141337386
-77780.48366261397
-48449.08928571428
-158085.75797872338
11458.665273556231
-117295.69832826748
70116.47416413373
-7668.989361702127
15283.200227963525
-123664.94338905775
-14.939589665653495
67551.84460486322
-29331.394376899694
-147891.97796352583
80300.29445288754
126199.69376899695
42064.904635258354
99422.969224924
-154271.18275075988
-62477.363981762916
-30611.21922492401
163165.2184650456
-147891.97796352583
-138973.0429331307
26751.825227963524
105817.1136018237
47209.103343465045
121160.07218844985
-137623.5
-84094.95022796352
93063.68389057751
119815.50911854103
56088.199468085106
-124939.78837386018
140218.0087386018
-65027.05395136778
152981.39817629178
99427.94908814589
135123.608662614
-93063.68389057751
-77775.5037993921
-154276.16261398175
26766.764817629177
35695.65957446808
89229.18920972644
-48454.06914893617
-19127.654635258357
-80325.19376899696
137673.29863221885
-48449.08928571428
17842.849924012156
-57382.963905775076
151701.57332826746
28046.589665653493
-100722.71352583586
86684.47910334346
14023.294832826747
-110921.47340425532
80310.2541793313
-47169.26443768997
-25506.8594224924
-30611.21922492401
132583.87841945287
-109636.66869300911
-130044.14817629178
73941.00911854103
-82859.94414893616
57358.06458966565
75205.8943768997
-43339.749620060786
94343.50873860181
53543.48936170212
54823.31420972644
-151701.57332826746
-110911.51367781154
126214.63335866261
-87954.344224924
61197.5391337386
6379.204787234043
-61177.61968085106
158090.7378419453
-156805.9331306991
16592.904255319147
-117265.81914893616
-104532.30889057751
-12738.490121580546
154276.16261398175
138968.06306990882
142787.61816109423
21687.30433130699
-110906.53381458967
159350.64323708205
-43339.749620060786
9.959726443768997
127479.51861702127
8923.91489361702
-96888.2188449848
-20407.479483282674
79035.40919452887
152981.39817629178
-17852.809650455925
-154261.2230243161
15298.139817629179
100712.7537993921
-6384.184650455927
-126214.63335866261
-89239.14893617021
86684.47910334346
-72671.14399696048
73945.98898176292
7649.069908814589
119830.44870820668
-30596.279635258357
66296.91907294832
-58647.84916413374
-93063.68389057751
124944.76823708205
-54818.334346504555
47169.26443768997
-72661.18427051671
82869.90387537994
-161905.31306990882
44624.55433130699
45899.39931610942
-90513.99392097264
-14023.294832826747
-133853.74354103341
-156805.9331306991
47169.26443768997
-81585.09916413373
-70116.47416413373
-98168.04369300911
127489.47834346505
121115.25341945289
-9.959726443768997
-14028.274696048631
114741.02849544073
-121115.25341945289
-114741.02849544073
45899.39931610942
-38250.329407294834
20387.560030395136
47169.26443768997
-152981.39817629178
-107096.93844984802
-68846.60904255319
56093.17933130699
-22957.169452887538
15293.159954407294
72666.1641337386
119830.44870820668
108351.86398176292
87959.32408814589
-110921.47340425532
76480.73936170213
-105817.1136018237
-117290.71846504559
77755.58434650456
11468.625
-109636.66869300911
-47179.22416413374
-14.939589665653495
150431.70820668692
75215.85410334346
103252.48404255319
15293.159954407294
1274.8449848024316
-35705.61930091185
-135143.5281155015
158075.79825227964
-17862.769376899694
19107.73518237082
-8933.87462006079
-144067.44300911852
-138978.02279635257
-103277.38335866261
-132588.85828267477
61182.599544072946
-12768.369300911854
-49728.9141337386
-44629.534194528875
-30616.199088145895
-103272.40349544073
-138963.08320668692
-43359.66907294832
71381.3594224924
-145342.28799392097
7639.11018237082
93068.66375379938
57412.84308510638
-73876.27089665653
160690.226443769
-163145.29901215804
42069.88449848024
12733.510258358661
-103272.40349544073
14023.294832826747
131304.05357142858
24217.074848024316
123659.96352583586
84134.7891337386
161895.35334346505
-142782.63829787233
108361.82370820668
127474.53875379938
158075.79825227964
45899.39931610942
61187.57940729483
-123669.92325227962
35700.63943768997
68841.6291793313
99427.94908814589
112186.35866261397
-95613.37386018237
151696.5934650456
80315.23404255319
-137673.29863221885
-136408.41337386018
53543.48936170212
5109.339665653495
6379.204787234043
87964.30395136778
-140227.9684650456
-34415.83472644377
-53543.48936170212
-135128.58852583586
132593.83814589665
104542.26861702127
-15293.159954407294
-80305.27431610943
-86684.47910334346
99442.88867781154
-43334.769756838905
114750.98822188449
-155526.10828267477
57377.98404255319
35715.57902735562
-68831.66945288754
-132573.91869300912
79060.3085106383
19137.614361702126
90523.9536474164
17867.74924012158
-136393.47378419453
-66281.97948328267
132603.79787234042
-122360.219224924
80330.17363221884
-116005.91375379938
-127464.57902735562
-59902.77469604863
93068.66375379938
63752.20896656535
53553.44908814589
29321.434650455925
-73945.98898176292
59922.69414893617
163175.17819148937
15288.18009118541
-11478.584726443769
52263.66451367781
-80335.15349544073
158070.81838905773
-12758.409574468085
-87984.22340425532
-93078.62348024316
-68851.58890577508
62452.46466565349
-154276.16261398175
38235.38981762918
34410.85486322188
-12768.369300911854
21667.384878419452
145327.34840425532
-11493.524316109422
146597.21352583586
34420.81458966565
126199.69376899695
54808.374620060786
45894.41945288754
-104542.26861702127
142767.69870820668
-110916.49354103343
-14023.294832826747
-38260.2891337386
127479.51861702127
-2549.689969604863
-95623.33358662613
43339.749620060786
-117285.7386018237
-107091.95858662613
-61202.51899696048
116010.89361702127
21672.364741641337
49708.994680851065
-126214.63335866261
-145332.3282674772
-155541.04787234042
39510.23480243161
-133863.7032674772
-101997.5585106383
-25511.839285714286
-124939.78837386018
84134.7891337386
31861.16489361702
-84149.72872340425
50988.81952887538
144047.523556231
-114746.00835866261
75215.85410334346
154251.26329787233
-38260.2891337386
-158085.75797872338
20402.49962006079
-6379.204787234043
-36970.504559270514
-28036.629939209724
155536.06800911852
94343.50873860181
-44604.63487841945
-107072.0391337386
-38235.38981762918
-100692.83434650456
-114716.1291793313
149171.80281155015
-50973.87993920972
-71366.41983282674
-42054.944908814585
132598.81800911855
54843.23366261398
58662.78875379939
-131299.07370820668
38260.2891337386
-39510.23480243161
-6369.245060790273
128769.30319148935
86699.41869300911
-73941.00911854103
-128759.34346504559
-156800.9532674772
45899.39931610942
-21677.34460486322
-70116.47416413373
53548.46922492401
-150441.6679331307
145327.34840425532
136413.39323708205
-38255.309270516715
-118575.52317629178
-62477.363981762916
-113466.1835106383
63757.18882978723
68886.44794832826
-40730.30129179331
-71331.56079027355
144082.3825987842
-49728.9141337386
-5124.279255319148
71376.37955927051
-112191.33852583586
-133868.6831306991
-138973.0429331307
-122395.0782674772
131299.07370820668
54803.394756838905
91773.89931610941
-24236.994300911854
24207.115121580548
39505.25493920973
-118570.54331306991
40785.07978723404
-73965.90843465045
-146627.09270516716
103252.48404255319
35680.71998480243
-149171.80281155015
-21687.30433130699
50973.87993920972
161885.39361702127
5089.420212765957
-131323.9730243161
39500.27507598784
95598.43427051671
108351.86398176292
29301.515197568388
-86709.37841945289
109626.70896656535
-72691.06344984802
-70141.37348024316
38235.38981762918
-22967.129179331307
86669.53951367781
-142797.57788753798
114721.10904255319
84119.84954407295
-12768.369300911854
-110926.4532674772
52248.72492401215
-149176.78267477202
-116020.85334346505
20387.560030395136
-24241.97416413374
-121120.23328267477
-26781.70440729483
-131323.9730243161
86684.47910334346
-14028.274696048631
-131318.99316109423
-17857.78951367781
114736.04863221884
68841.6291793313
77760.56420972644
56093.17933130699
122385.11854103343
28041.60980243161
-10208.719604863221
65012.11436170212
-44634.514057750755
-112201.29825227964
-91798.79863221884
-130049.12803951367
-22967.129179331307
130024.22872340425
114726.08890577508
140213.02887537994
-89259.06838905775
132573.91869300912
14008.355243161093
-35715.57902735562
-146617.13297872338
-10218.67933130699
21657.425151975684
-58652.82902735562
141497.83358662613
128744.40387537994
-82879.8636018237
12743.46998480243
6364.265197568388
44604.63487841945
10188.800151975684
-73955.94870820668
163165.2184650456
93058.70402735562
-94343.50873860181
-85429.55357142857
67556.8244680851
141502.813449848
123650.00379939209
42059.92477203647
99432.92895136778
-31881.08434650456
-29336.37424012158
48439.129559270514
30591.299772036473
160615.52849544073
90504.03419452887
-76500.65881458967
136393.47378419453
-52283.58396656535
56088.199468085106
58632.90957446808
146592.233662614
-71401.27887537994
-98173.023556231
86674.5193768997
-12763.38943768997
-98173.023556231
127469.55889057751
135113.6489361702
24212.094984802432
-15313.079407294832
-63767.148556231
127469.55889057751
-10213.699468085106
3804.615501519757
33126.05015197568
-42094.78381458966
48414.230243161095
-144087.36246200607
73921.08966565349
80290.33472644376
34390.93541033434
98138.16451367781
136383.51405775076
-138987.98252279634
-6404.104103343465
-116035.7929331307
156781.03381458967
-104567.1679331307
104512.38943768997
-24.899316109422493
-81619.95820668693
15273.240501519756
-150456.60752279634
-48478.96846504559
52238.765197568384
158055.87879939209
-147916.87727963526
-28086.42857142857
-122414.99772036474
-110946.37272036474
13988.435790273556
-68871.50835866261
49694.05509118541
-87999.16299392097
152951.51899696048
-17872.729103343463
-76520.5782674772
-17877.708966565348
126189.73404255319
-76515.59840425532
66267.03989361702
80295.31458966565
-49743.85372340425
81560.1998480243
-121125.21314589665
136428.3328267477
-7614.210866261398
-50944.000759878414
58692.667933130695
-49718.954407294834
26746.84536474164
79025.4494680851
-1289.784574468085
-122405.03799392097
100697.81420972644
152976.4183130699
-30606.239361702126
33136.00987841945
-144062.46314589665
118555.60372340425
-149166.82294832825
81590.07902735562
-147882.01823708205
98158.08396656535
-105812.13373860181
-112181.37879939209
75215.85410334346
-40795.03951367781
-6364.265197568388
65027.05395136778
-135128.58852583586
68856.56876899696
112201.29825227964
93073.64361702127
-77750.60448328267
-155511.16869300912
114750.98822188449
67586.7036474164
16602.863981762916
-29301.515197568388
-40780.09992401215
147906.91755319148
119860.32788753799
-91768.91945288754
161935.19224924012
-81560.1998480243
72686.08358662613
-126189.73404255319
-155501.20896656535
58667.76861702128
53563.40881458966
-12723.550531914892
-62442.50493920972
52288.56382978723
-81565.1797112462
-117255.8594224924
109656.58814589665
-47149.34498480243
-146577.2940729483
61217.45858662614
84159.68844984802
-141482.89399696048
56123.05851063829
-21652.4452887538
161925.23252279634
3849.4342705167173
19142.59422492401
104552.22834346505
98182.98328267477
-154241.30357142855
5109.339665653495
114750.98822188449
-159345.66337386018
-66296.91907294832
161910.2929331307
99447.86854103343
-135138.54825227964
-121115.25341945289
1279.824848024316
-131314.01329787233
-95623.33358662613
84139.76899696048
62467.40425531915
154241.30357142855
5089.420212765957
-117290.71846504559
59907.754559270514
-79050.34878419453
11473.604863221884
-151716.5129179331
-48459.04901215805
-133863.7032674772
84134.7891337386
112171.41907294832
113451.24392097264
47164.28457446808
133848.76367781154
-85424.57370820668
-42074.86436170212
3819.55509118541
-19137.614361702126
-128764.32332826748
-34430.77431610942
-158100.69756838906
-30611.21922492401
33145.96960486322
-63752.20896656535
-156815.89285714284
66291.93920972644
-67576.74392097264
-43359.66907294832
119830.44870820668
28041.60980243161
26761.784954407292
67561.804331307
-28051.569528875378
159345.66337386018
146597.21352583586
12748.449848024316
-87974.26367781154
152966.45858662613
80310.2541793313
126204.67363221884
101977.63905775076
99432.92895136778
94338.52887537994
-91798.79863221884
119825.4688449848
53543.48936170212
19117.69490881459
-24236.994300911854
-76495.67895136778
17847.82978723404
154246.28343465045
6369.245060790273
-149156.8632218845
-56103.139057750755
135123.608662614
-8923.91489361702
119835.42857142857
91783.85904255319
-22947.20972644377
-45894.41945288754
82859.94414893616
-163180.15805471124
131314.01329787233
-116015.87348024316
-118565.56344984802
52273.62424012158
-142782.63829787233
6364.265197568388
-84149.72872340425
122385.11854103343
-72676.12386018237
3819.55509118541
94338.52887537994
-85424.57370820668
163165.2184650456
-33155.92933130699
-77775.5037993921
136393.47378419453
114731.06876899695
-33150.949468085106
-58657.80889057751
-146617.13297872338
59912.7344224924
-29341.354103343463
40775.12006079027
28041.60980243161
-123650.00379939209
155560.96732522795
-16513.226443768996
-53478.75113981763
-113441.28419452887
38235.38981762918
-91803.77849544073
84124.82940729483
-57382.963905775076
-123664.94338905775
82854.96428571428
25481.960106382976
-81595.05889057751
-112191.33852583586
-98178.00341945289
73936.02925531914
43344.729483282674
133848.76367781154
-116020.85334346505
-40800.0193768997
-25506.8594224924
142772.67857142855
33145.96960486322
56093.17933130699
103252.48404255319
14018.314969604862
-22952.189589665653
-128769.30319148935
-87974.26367781154
-72671.14399696048
57363.04445288754
-47179.22416413374
-16572.98480243161
-95613.37386018237
-112196.31838905775
-16577.964665653493
-42069.88449848024
154251.26329787233
-94343.50873860181
68846.60904255319
36970.504559270514
72661.18427051671
-105812.13373860181
-124934.8085106383
8923.91489361702
101992.5786474164
49728.9141337386
85419.5938449848
-31871.12462006079
-142772.67857142855
-123650.00379939209
-127479.51861702127
142797.57788753798
54838.25379939209
-71386.33928571428
160640.42781155015
155551.0075987842
-62457.44452887538
108376.76329787234
130059.08776595745
21692.284194528875
-71381.3594224924
-163160.2386018237
58662.78875379939
72671.14399696048
113471.16337386018
160645.40767477202
-2549.689969604863
-21672.364741641337
123669.92325227962
150431.70820668692
45889.43958966565
-38245.349544072946
-48444.1094224924
33140.98974164134
-62472.38411854103
-36970.504559270514
146602.19338905773
85409.63411854103
140232.94832826746
8918.935030395136
48434.14969604863
149156.8632218845
-133858.72340425532
154246.28343465045
-154261.2230243161
70116.47416413373
-155541.04787234042
-107096.93844984802
-1279.824848024316
-110916.49354103343
-160640.42781155015
-52273.62424012158
100712.7537993921
87954.344224924
138953.12348024314
-66291.93920972644
-109646.62841945289
-17862.769376899694
-47174.24430091185
-160635.44794832825
11463.645136778116
131304.05357142858
10198.759878419452
103252.48404255319
113456.22378419452
58642.86930091185
-40809.97910334347
-123669.92325227962
140232.94832826746
-26781.70440729483
114726.08890577508
145332.3282674772
76485.719224924
54803.394756838905
117280.75873860181
132583.87841945287
100702.79407294832
39510.23480243161
11473.604863221884
108356.8438449848
-19137.614361702126
-68846.60904255319
36970.504559270514
-131323.9730243161
2544.7101063829787
8928.894756838905
-90523.9536474164
42059.92477203647
-113461.2036474164
44619.574468085106
-80325.19376899696
-136408.41337386018
-98163.06382978724
163175.17819148937
150431.70820668692
-42069.88449848024
-160635.44794832825
-82869.90387537994
1279.824848024316
-98168.04369300911
-80325.19376899696
-61197.5391337386
26771.74468085106
-28056.549392097262
52263.66451367781
85414.61398176292
17842.849924012156
-58652.82902735562
52268.64437689969
107081.99886018237
154246.28343465045
-63747.22910334346
6374.224924012158
108351.86398176292
-28056.549392097262
-161905.31306990882
-109646.62841945289
-95628.31344984802
138958.10334346505
14038.2344224924
135163.44756838906
-142722.87993920973
125004.52659574467
-146577.2940729483
-85419.5938449848
45889.43958966565
99422.969224924
122375.15881458965
38255.309270516715
66291.93920972644
-70126.43389057751
42074.86436170212
-76490.69908814589
3819.55509118541
-49723.934270516715
-137683.2583586626
119830.44870820668
-119840.40843465045
-112181.37879939209
-127484.49848024316
2544.7101063829787
101992.5786474164
105817.1136018237
47159.3047112462
-40800.0193768997
-49713.974544072946
-96893.19870820668
-20402.49962006079
-76485.719224924
89239.14893617021
-34430.77431610942
36975.4844224924
-133853.74354103341
-98168.04369300911
43349.709346504555
75225.81382978724
-14028.274696048631
35695.65957446808
12758.409574468085
43349.709346504555
-7654.049772036474
-91783.85904255319
77775.5037993921
58642.86930091185
12753.4297112462
-95603.4141337386
-128759.34346504559
68846.60904255319
137698.19794832825
-50988.81952887538
58652.82902735562
118575.52317629178
62477.363981762916
-108356.8438449848
99452.84840425532
-113441.28419452887
36985.44414893617
-24212.094984802432
-160610.54863221885
160645.40767477202
57377.98404255319
122400.05813069908
-149141.92363221885
101992.5786474164
-49713.974544072946
110926.4532674772
108361.82370820668
-104547.24848024316
-128754.3636018237
116015.87348024316
-142787.61816109423
53548.46922492401
136413.39323708205
-67576.74392097264
132578.898556231
-126204.67363221884
161900.33320668692
-16582.944528875378
146612.1531155015
-5104.359802431611
-94348.4886018237
-47169.26443768997
48444.1094224924
-5109.339665653495
-147882.01823708205
43349.709346504555
-147886.99810030396
-126214.63335866261
-21672.364741641337
-29326.41451367781
48439.129559270514
158085.75797872338
-136403.43351063828
138948.14361702127
158075.79825227964
28051.569528875378
-87969.28381458967
-99442.88867781154
-12748.449848024316
-110916.49354103343
7639.11018237082
-144057.48328267477
-35695.65957446808
-113471.16337386018
-47174.24430091185
71396.29901215805
-70126.43389057751
-113471.16337386018
150436.68806990882
-82869.90387537994
-114746.00835866261
142782.63829787233
-137688.2382218845
142772.67857142855
31866.144756838905
42069.88449848024
-121115.25341945289
163170.19832826746
-77770.52393617021
-117290.71846504559
150421.74848024314
-67571.76405775076
38245.349544072946
-151716.5129179331
91783.85904255319
-91788.83890577508
22942.229863221884
-68851.58890577508
-45894.41945288754
-96893.19870820668
137673.29863221885
-138958.10334346505
61192.559270516715
-38255.309270516715
-50993.799392097266
36975.4844224924
-30606.239361702126
36965.52469604863
-152981.39817629178
112181.37879939209
81580.11930091184
-90518.97378419453
52268.64437689969
53533.529635258354
108351.86398176292
65017.09422492401
-150441.6679331307
-48459.04901215805
-67571.76405775076
-20407.479483282674
12738.490121580546
-63747.22910334346
-103267.42363221884
-22962.149316109422
-103272.40349544073
-57377.98404255319
156795.97340425532
59932.65387537994
53588.308130699086
45949.19794832826
130083.98708206686
-103237.54445288754
-89249.10866261397
-40819.938829787236
127474.53875379938
-110911.51367781154
25491.919832826745
-75225.81382978724
-110911.51367781154
-71401.27887537994
63727.30965045592
-17852.809650455925
-110911.51367781154
-66301.89893617021
-114741.02849544073
-3824.5349544072947
99432.92895136778
80310.2541793313
-47169.26443768997
-48449.08928571428
-86699.41869300911
147882.01823708205
54818.334346504555
-35710.59916413374
-122390.09840425532
76495.67895136778
-155536.06800911852
67556.8244680851
57368.02431610942
20402.49962006079
30591.299772036473
137683.2583586626
67571.76405775076
155526.10828267477
158080.7781155015
136413.39323708205
-99442.88867781154
144052.50341945287
93068.66375379938
11478.584726443769
161900.33320668692
-14023.294832826747
-156800.9532674772
-132588.85828267477
100717.73366261397
-82854.96428571428
-142782.63829787233
2554.6698328267476
-126194.71390577508
38255.309270516715
-76490.69908814589
90528.9335106383
-48434.14969604863
14028.274696048631
128769.30319148935
-122370.17895136778
103272.40349544073
73950.9688449848
-115995.95402735562
14033.254559270516
158080.7781155015
56103.139057750755
65027.05395136778
-141512.77317629178
152981.39817629178
-16568.004939209724
-140237.92819148937
61182.599544072946
156800.9532674772
-113466.1835106383
-79050.34878419453
-132588.85828267477
136403.43351063828
1264.8852583586627
33140.98974164134
-53548.46922492401
11463.645136778116
114726.08890577508
-77770.52393617021
-70126.43389057751
12738.490121580546
-142787.61816109423
-33150.949468085106
-29336.37424012158
29311.474924012156
-63747.22910334346
3819.55509118541
-87974.26367781154
-49723.934270516715
-126219.61322188449
-22962.149316109422
-56098.159194528875
-57373.00417933131
-47184.20402735562
-87974.26367781154
22947.20972644377
-140242.90805471124
131299.07370820668
14023.294832826747
158070.81838905773
152966.45858662613
-94343.50873860181
155526.10828267477
-10213.699468085106
30591.299772036473
40795.03951367781
-15313.079407294832
-14038.2344224924
-127484.49848024316
-34430.77431610942
133843.78381458967
-98168.04369300911
-84144.74886018237
-57382.963905775076
1269.865121580547
-52273.62424012158
-103277.38335866261
84129.80927051671
149156.8632218845
29316.45478723404
-56108.11892097264
-128764.32332826748
-114741.02849544073
105797.19414893616
-112196.31838905775
-86689.45896656535
-89249.10866261397
-155541.04787234042
-72666.1641337386
-62472.38411854103
22937.25
-118565.56344984802
107086.97872340425
-75225.81382978724
158075.79825227964
159355.62310030396
108351.86398176292
68826.68958966565
65012.11436170212
49713.974544072946
29311.474924012156
126204.67363221884
40790.05965045592
-144072.42287234042
117275.77887537994
86684.47910334346
5089.420212765957
-54833.27393617021
81585.09916413373
29316.45478723404
150416.76861702127
-79055.3286474164
81580.11930091184
61182.599544072946
56108.11892097264
-78995.57028875379
-11418.826367781154
112241.13715805471
-68816.72986322189
-68856.56876899696
19102.755319148935
127479.51861702127
-26776.724544072946
136398.4536474164
-160640.42781155015
38240.369680851065
107081.99886018237
30591.299772036473
-17852.809650455925
95608.39399696048
-30611.21922492401
155526.10828267477
80315.23404255319
-61202.51899696048
34415.83472644377
-2554.6698328267476
-154266.20288753798
133848.76367781154
81590.07902735562
82859.94414893616
28036.629939209724
65017.09422492401
161905.31306990882
152971.438449848
91783.85904255319
-38245.349544072946
131304.05357142858
-33155.92933130699
-26771.74468085106
-5104.359802431611
150421.74848024314
-145332.3282674772
-61192.559270516715
52263.66451367781
40795.03951367781
28051.569528875378
-56098.159194528875
-79045.36892097264
-103257.46390577508
-26771.74468085106
-99442.88867781154
-100707.77393617021
19132.63449848024
-127484.49848024316
-127479.51861702127
140242.90805471124
101992.5786474164
-56088.199468085106
102002.53837386018
105822.09346504559
-59912.7344224924
-155516.148556231
-149141.92363221885
-159350.64323708205
-26766.764817629177
127499.4380699088
-96883.23898176292
14028.274696048631
42079.84422492401
90518.97378419453
136403.43351063828
12748.449848024316
-33145.96960486322
-61202.51899696048
56088.199468085106
-158080.7781155015
-36980.46428571428
66281.97948328267
-124939.78837386018
42064.904635258354
54808.374620060786
-65022.07408814589
-117290.71846504559
156790.99354103341
113451.24392097264
121105.29369300911
114721.10904255319
93053.72416413373
65017.09422492401
-155541.04787234042
-31886.064209726443
-147886.99810030396
114731.06876899695
-91803.77849544073
-44629.534194528875
40795.03951367781
-93073.64361702127
56083.21960486322
-54823.31420972644
16568.004939209724
-138973.0429331307
76485.719224924
-51003.759118541035
136393.47378419453
61187.57940729483
150431.70820668692
99427.94908814589
-126224.59308510637
22947.20972644377
81585.09916413373
-158095.71770516716
141502.813449848
123654.98366261397
-144072.42287234042
-140242.90805471124
-48449.08928571428
126199.69376899695
-31886.064209726443
-151711.53305471124
160620.5083586626
-112201.29825227964
-11483.564589665653
59907.754559270514
99422.969224924
85409.63411854103
58642.86930091185
19112.715045592704
81580.11930091184
47169.26443768997
-147891.97796352583
-98178.00341945289
-45899.39931610942
-146612.1531155015
-75230.79369300911
11468.625
89239.14893617021
-96898.17857142857
-53553.44908814589
72666.1641337386
-109646.62841945289
89229.18920972644
-45894.41945288754
-126209.65349544073
138948.14361702127
122380.13867781154
47169.26443768997
17837.870060790272
45884.45972644377
-1279.824848024316
30591.299772036473
-159370.5626899696
21667.384878419452
-96893.19870820668
15283.200227963525
49708.994680851065
-94338.52887537994
107077.01899696048
-155546.0277355623
-135138.54825227964
45884.45972644377
161890.37348024314
36965.52469604863
-123674.90311550151
98148.12424012157
140247.8879179331
133903.54217325227
-108307.04521276595
-115946.15539513677
86734.27773556231
110906.53381458967
-105832.05319148935
114731.06876899695
-140237.92819148937
-128769.30319148935
119830.44870820668
-138958.10334346505
-1284.8047112462004
98148.12424012157
-159360.60296352583
-91793.81876899696
34410.85486322188
1274.8449848024316
19122.674772036473
-110921.47340425532
-131314.01329787233
-149156.8632218845
-67576.74392097264
132573.91869300912
-113461.2036474164
158075.79825227964
50983.83966565349
57368.02431610942
114736.04863221884
-130044.14817629178
128754.3636018237
99437.90881458967
117275.77887537994
25491.919832826745
110916.49354103343
8923.91489361702
-51003.759118541035
-160630.46808510637
118565.56344984802
-98168.04369300911
-54823.31420972644
53548.46922492401
-38250.329407294834
-48449.08928571428
-5094.400075987842
11478.584726443769
-42074.86436170212
-54813.354483282674
61202.51899696048
105812.13373860181
135138.54825227964
-20387.560030395136
90518.97378419453
113466.1835106383
112206.27811550151
-63732.28951367781
149156.8632218845
-128744.40387537994
-25481.960106382976
155536.06800911852
21687.30433130699
-21657.425151975684
-119830.44870820668
-160625.4882218845
159365.5828267477
160635.44794832825
80315.23404255319
73945.98898176292
-105812.13373860181
126199.69376899695
48439.129559270514
-30601.25949848024
-34430.77431610942
142772.67857142855
-101992.5786474164
133853.74354103341
105802.17401215805
-57373.00417933131
-87969.28381458967
-7664.009498480243
-61202.51899696048
20397.519756838905
137673.29863221885
-22962.149316109422
133853.74354103341
-91798.79863221884
151691.61360182372
-24232.01443768997
30596.279635258357
56083.21960486322
141497.83358662613
53543.48936170212
59907.754559270514
-59932.65387537994
-158080.7781155015
-146612.1531155015
133843.78381458967
61187.57940729483
-10203.739741641337
-42084.82408814589
-131318.99316109423
137683.2583586626
-61202.51899696048
-145347.26785714284
86684.47910334346
-73950.9688449848
-133873.66299392097
-142787.61816109423
145327.34840425532
16558.045212765956
-145342.28799392097
95613.37386018237
25486.93996960486
34410.85486322188
62467.40425531915
-14033.254559270516
-22962.149316109422
43339.749620060786
-114746.00835866261
-142797.57788753798
-141517.7530395137
152976.4183130699
-109646.62841945289
14013.335106382978
82859.94414893616
-1284.8047112462004
151691.61360182372
70111.49430091186
-75220.83396656535
11463.645136778116
31866.144756838905
-42074.86436170212
87954.344224924
-145342.28799392097
104537.28875379938
-161910.2929331307
43334.769756838905
158080.7781155015
93063.68389057751
91773.89931610941
-112191.33852583586
10203.739741641337
-24232.01443768997
-24232.01443768997
-63747.22910334346
-71401.27887537994
58627.9297112462
163170.19832826746
121105.29369300911
-150446.64779635257
-108371.78343465045
-67571.76405775076
-144072.42287234042
3814.575227963526
-156810.91299392097
79030.429331307
-123674.90311550151
152976.4183130699
-21677.34460486322
26756.805091185408
-71411.2386018237
57363.04445288754
131309.03343465045
82889.82332826748
-49659.19604863221
-11403.8867781155
63787.068009118535
90518.97378419453
6364.265197568388
65002.154635258354
-126219.61322188449
-114736.04863221884
132573.91869300912
39510.23480243161
98163.06382978724
45889.43958966565
62457.44452887538
-29326.41451367781
-22952.189589665653
-11488.544452887538
-138968.06306990882
160630.46808510637
-16582.944528875378
135123.608662614
-98163.06382978724
-40800.0193768997
-135143.5281155015
30596.279635258357
81590.07902735562
-108371.78343465045
76485.719224924
91788.83890577508
75210.87424012157
105807.15387537994
20402.49962006079
101987.59878419453
-61202.51899696048
-7654.049772036474
-114736.04863221884
-96893.19870820668
81590.07902735562
121115.25341945289
-49723.934270516715
154251.26329787233
-7644.090045592705
160630.46808510637
59907.754559270514
116015.87348024316
-123650.00379939209
95613.37386018237
155536.06800911852
52283.58396656535
-80315.23404255319
-133858.72340425532
-124919.86892097264
-59907.754559270514
-136403.43351063828
110926.4532674772
72681.10372340425
121115.25341945289
-113451.24392097264
107106.89817629178
17857.78951367781
-52263.66451367781
-44604.63487841945
130044.14817629178
-15298.139817629179
-150426.72834346505
151711.53305471124
122385.11854103343
121110.273556231
1279.824848024316
-66296.91907294832
-12758.409574468085
56093.17933130699
163175.17819148937
124924.84878419452
99432.92895136778
123654.98366261397
58632.90957446808
1269.865121580547
-70121.45402735562
146597.21352583586
-14033.254559270516
3814.575227963526
65002.154635258354
-126219.61322188449
-12753.4297112462
76490.69908814589
116000.93389057751
-45904.37917933131
138958.10334346505
-48454.06914893617
63732.28951367781
-61197.5391337386
-26781.70440729483
15288.18009118541
-22952.189589665653
-147886.99810030396
-11488.544452887538
-146617.13297872338
156800.9532674772
30591.299772036473
103252.48404255319
98158.08396656535
-5109.339665653495
52253.70478723404
151701.57332826746
-82864.92401215805
85404.65425531914
-28056.549392097262
61192.559270516715
124924.84878419452
43334.769756838905
66291.93920972644
-36980.46428571428
-33165.889057750755
-59922.69414893617
21672.364741641337
56078.23974164134
-75225.81382978724
35690.6797112462
150416.76861702127
-109646.62841945289
39520.19452887538
114731.06876899695
42059.92477203647
-159360.60296352583
-76495.67895136778
19112.715045592704
-65027.05395136778
-35700.63943768997
-140242.90805471124
-21687.30433130699
-24227.034574468085
137678.27849544073
76475.75949848024
66291.93920972644
79045.36892097264
-19137.614361702126
132578.898556231
-133853.74354103341
127479.51861702127
-86699.41869300911
-147882.01823708205
-141512.77317629178
147872.05851063828
-2554.6698328267476
161900.33320668692
-116025.83320668692
-93073.64361702127
35695.65957446808
135123.608662614
-98178.00341945289
-100717.73366261397
39515.2146656535
159340.68351063828
42064.904635258354
-96893.19870820668
-71406.25873860183
-156815.89285714284
151706.55319148937
45884.45972644377
38230.409954407296
-52278.60410334346
109626.70896656535
137688.2382218845
151746.39209726444
-124870.07028875379
77830.28229483282
31905.98366261398
158080.7781155015
-130054.10790273556
-151721.49278115502
126209.65349544073
-117290.71846504559
151696.5934650456
124934.8085106383
-84144.74886018237
159340.68351063828
-113466.1835106383
-48444.1094224924
-9.959726443768997
2544.7101063829787
-149156.8632218845
-22952.189589665653
-140242.90805471124
-130039.16831306991
-10203.739741641337
-71401.27887537994
-103267.42363221884
116010.89361702127
20392.53989361702
-5109.339665653495
-85414.61398176292
85414.61398176292
40785.07978723404
146607.17325227964
161910.2929331307
81580.11930091184
-95618.35372340425
-1269.865121580547
-2554.6698328267476
-128764.32332826748
117290.71846504559
-85414.61398176292
73936.02925531914
-68841.6291793313
-104532.30889057751
-47174.24430091185
119835.42857142857
108371.78343465045
94343.50873860181
152981.39817629178
137693.21808510637
119845.38829787234
-89239.14893617021
43354.68920972644
29336.37424012158
63747.22910334346
-66286.95934650456
-48429.169832826745
-87954.344224924
-135123.608662614
103282.36322188449
-145317.38867781154
76500.65881458967
-140218.0087386018
-94323.58928571428
98168.04369300911
-108356.8438449848
52283.58396656535
5104.359802431611
163175.17819148937
25501.879559270517
-1279.824848024316
-112196.31838905775
-117285.7386018237
75215.85410334346
47159.3047112462
-40804.99924012158
161905.31306990882
131304.05357142858
-137693.21808510637
-16577.964665653493
22942.229863221884
-81605.01861702127
-107091.95858662613
31871.12462006079
137668.31876899695
151696.5934650456
-89239.14893617021
79030.429331307
123645.02393617021
56093.17933130699
-57373.00417933131
-2564.6295592705164
-151711.53305471124
10198.759878419452
-94348.4886018237
101982.61892097264
59917.71428571428
160620.5083586626
-142797.57788753798
114736.04863221884
-68846.60904255319
-61207.49886018237
72666.1641337386
30596.279635258357
-25511.839285714286
119830.44870820668
158080.7781155015
65007.13449848024
-67581.72378419453
160630.46808510637
-124939.78837386018
-130049.12803951367
-47174.24430091185
-20402.49962006079
36955.564969604864
-1284.8047112462004
-42069.88449848024
-34430.77431610942
118550.62386018237
-130039.16831306991
28041.60980243161
-30611.21922492401
-45899.39931610942
39520.19452887538
-52283.58396656535
110906.53381458967
-54818.334346504555
161895.35334346505
-38260.2891337386
-49723.934270516715
-137688.2382218845
136398.4536474164
103257.46390577508
-130039.16831306991
-10213.699468085106
-112196.31838905775
-30596.279635258357
132578.898556231
11468.625
20407.479483282674
-105812.13373860181
104527.32902735562
-141507.7933130699
84144.74886018237
8918.935030395136
-61197.5391337386
131309.03343465045
-26786.684270516715
-117295.69832826748
-135133.56838905773
56088.199468085106
35685.69984802431
-39530.15425531915
-52278.60410334346
-29336.37424012158
-112196.31838905775
103262.44376899695
58637.88943768997
-158090.7378419453
98163.06382978724
-19132.63449848024
161890.37348024314
73936.02925531914
-36980.46428571428
-117300.67819148935
-116000.93389057751
-56048.36056231003
161965.07142857142
-96828.46048632219
-100677.8947568389
11468.625
160610.54863221885
-130039.16831306991
-104537.28875379938
-103272.40349544073
56088.199468085106
-1274.8449848024316
5094.400075987842
110901.55395136778
-89239.14893617021
-94343.50873860181
16563.02507598784
67566.78419452887
-124934.8085106383
-68856.56876899696
-81600.0387537994
75220.83396656535
24217.074848024316
150421.74848024314
1279.824848024316
39520.19452887538
-20407.479483282674
128759.34346504559
-156805.9331306991
122380.13867781154
28046.589665653493
52273.62424012158
-118565.56344984802
77760.56420972644
113466.1835106383
161905.31306990882
5094.400075987842
140232.94832826746
-98163.06382978724
-152986.3780395137
17847.82978723404
53548.46922492401
-158080.7781155015
-135133.56838905773
51003.759118541035
42074.86436170212
95613.37386018237
-126199.69376899695
135143.5281155015
-146607.17325227964
-91783.85904255319
26786.684270516715
-30591.299772036473
128764.32332826748
-58627.9297112462
137698.19794832825
80320.21390577508
-65007.13449848024
-130019.24886018237
-137673.29863221885
77780.48366261397
-35680.71998480243
-21667.384878419452
73945.98898176292
114750.98822188449
30606.239361702126
-85419.5938449848
-155526.10828267477
-75210.87424012157
163175.17819148937
-127489.47834346505
89239.14893617021
-85424.57370820668
-140242.90805471124
-100712.7537993921
-110916.49354103343
-141522.73290273556
-57373.00417933131
-131309.03343465045
11463.645136778116
-94348.4886018237
54818.334346504555
-75225.81382978724
49708.994680851065
98158.08396656535
62462.42439209726
-137693.21808510637
-101992.5786474164
26771.74468085106
104527.32902735562
-31881.08434650456
140232.94832826746
-30606.239361702126
123650.00379939209
-138963.08320668692
138953.12348024314
142772.67857142855
7644.090045592705
-107091.95858662613
140222.98860182372
-63752.20896656535
61192.559270516715
-22957.169452887538
109626.70896656535
17847.82978723404
-117290.71846504559
68831.66945288754
-156810.91299392097
-1279.824848024316
82854.96428571428
72656.20440729483
-158085.75797872338
-135143.5281155015
33136.00987841945
54818.334346504555
135128.58852583586
152966.45858662613
22942.229863221884
-57373.00417933131
-22962.149316109422
-144067.44300911852
-73945.98898176292
96878.25911854103
65007.13449848024
21672.364741641337
84134.7891337386
-91803.77849544073
98158.08396656535
-45899.39931610942
16563.02507598784
159345.66337386018
-3829.514817629179
-151716.5129179331
68831.66945288754
63742.24924012158
-151711.53305471124
150421.74848024314
89239.14893617021
-22947.20972644377
-49728.9141337386
99432.92895136778
-12748.449848024316
42064.904635258354
-140242.90805471124
109636.66869300911
-141517.7530395137
81575.13943768997
-86694.43882978724
-36975.4844224924
-86704.398556231
-104547.24848024316
-114741.02849544073
3814.575227963526
49708.994680851065
136403.43351063828
99427.94908814589
-116025.83320668692
-14033.254559270516
-29331.394376899694
-113476.14323708205
71381.3594224924
-26781.70440729483
79030.429331307
-131304.05357142858
57407.863221884494
-156746.17477203647
12813.188069908814
-16538.125759878418
52268.64437689969
26751.825227963524
156790.99354103341
38245.349544072946
-54828.29407294832
-49733.89399696048
-11478.584726443769
-159360.60296352583
101977.63905775076
21672.364741641337
100712.7537993921
62457.44452887538
154246.28343465045
126209.65349544073
-89244.1287993921
-99447.86854103343
58642.86930091185
-155536.06800911852
-11483.564589665653
121110.273556231
70111.49430091186
-14.939589665653495
-158085.75797872338
48449.08928571428
-81595.05889057751
-54828.29407294832
-71391.31914893616
-118560.58358662613
95608.39399696048
-90513.99392097264
-132583.87841945287
40790.05965045592
108361.82370820668
-29321.434650455925
123654.98366261397
-132588.85828267477
-71386.33928571428
42074.86436170212
-103267.42363221884
-132578.898556231
-43339.749620060786
24222.0547112462
-73941.00911854103
-43339.749620060786
67571.76405775076
86694.43882978724
-65007.13449848024
-121100.31382978724
-152976.4183130699
-76480.73936170213
118575.52317629178
-56088.199468085106
119845.38829787234
5119.299392097264
-79030.429331307
-136403.43351063828
122400.05813069908
8938.854483282674
119840.40843465045
94348.4886018237
24232.01443768997
98163.06382978724
-85414.61398176292
-140227.9684650456
-53548.46922492401
5094.400075987842
147882.01823708205
-76495.67895136778
63732.28951367781
-151711.53305471124
117285.7386018237
44609.61474164134
-2564.6295592705164
-7654.049772036474
-112196.31838905775
73931.04939209727
-49723.934270516715
98153.10410334346
-67581.72378419453
-34425.79445288754
-99442.88867781154
-147891.97796352583
90509.01405775076
90513.99392097264
15293.159954407294
131299.07370820668
7649.069908814589
-70121.45402735562
-19137.614361702126
24217.074848024316
121110.273556231
81580.11930091184
-118570.54331306991
42069.88449848024
65007.13449848024
53533.529635258354
14023.294832826747
21667.384878419452
8913.955167173252
30596.279635258357
112186.35866261397
81580.11930091184
-19132.63449848024
29321.434650455925
140222.98860182372
-24236.994300911854
-85419.5938449848
152976.4183130699
113451.24392097264
90509.01405775076
-121115.25341945289
48434.14969604863
76480.73936170213
-12753.4297112462
-38255.309270516715
48434.14969604863
0.0
39515.2146656535
93048.74430091184
158075.79825227964
-140232.94832826746
-38260.2891337386
137673.29863221885
-12748.449848024316
-156810.91299392097
6364.265197568388
65017.09422492401
155531.08814589665
-84149.72872340425
114736.04863221884
-42069.88449848024
-58652.82902735562
133853.74354103341
29326.41451367781
-107091.95858662613
-154266.20288753798
-66296.91907294832
20392.53989361702
-135148.50797872338
59912.7344224924
-105817.1136018237
-58657.80889057751
-94348.4886018237
68841.6291793313
-104547.24848024316
-149171.80281155015
-155536.06800911852
-149161.84308510637
108346.88411854103
108356.8438449848
141507.7933130699
-75230.79369300911
52258.68465045592
-30601.25949848024
89244.1287993921
-104512.38943768997
-36915.72606382979
51058.53761398176
-42040.005319148935
-142787.61816109423
17832.890197568388
-90528.9335106383
126199.69376899695
-16577.964665653493
44619.574468085106
44614.59460486322
93063.68389057751
-33150.949468085106
118550.62386018237
40795.03951367781
-161905.31306990882
156795.97340425532
-67571.76405775076
98168.04369300911
144052.50341945287
-73950.9688449848
-110911.51367781154
81590.07902735562
-107096.93844984802
91788.83890577508
11478.584726443769
-126219.61322188449
93058.70402735562
-121105.29369300911
-70121.45402735562
128749.38373860181
-95613.37386018237
57373.00417933131
-150436.68806990882
99437.90881458967
35700.63943768997
-10203.739741641337
128759.34346504559
-141502.813449848
94338.52887537994
-59922.69414893617
-8918.935030395136
152986.3780395137
-75220.83396656535
-49713.974544072946
149166.82294832825
137683.2583586626
-142777.65843465045
56103.139057750755
-24222.0547112462
-22942.229863221884
72681.10372340425
54828.29407294832
59922.69414893617
-54808.374620060786
73955.94870820668
42079.84422492401
28061.529255319147
36990.42401215805
-49708.994680851065
19132.63449848024
152996.33776595743
-54808.374620060786
-70116.47416413373
-79035.40919452887
-6369.245060790273
-77770.52393617021
-72671.14399696048
-98158.08396656535
-1279.824848024316
19112.715045592704
-94338.52887537994
-58647.84916413374
3814.575227963526
-98163.06382978724
44619.574468085106
-5114.31952887538
76485.719224924
-133858.72340425532
34415.83472644377
-131318.99316109423
-79040.38905775076
-104542.26861702127
-152996.33776595743
-113466.1835106383
61192.559270516715
-67581.72378419453
-40804.99924012158
-108361.82370820668
-21682.324468085106
-6384.184650455927
-10198.759878419452
-104542.26861702127
39510.23480243161
-122390.09840425532
119835.42857142857
-33155.92933130699
127479.51861702127
119835.42857142857
-121120.23328267477
93053.72416413373
-132583.87841945287
29321.434650455925
-158090.7378419453
-43349.709346504555
-154261.2230243161
28036.629939209724
-150436.68806990882
-68841.6291793313
15293.159954407294
123650.00379939209
86689.45896656535
158075.79825227964
-66306.8787993921
-100717.73366261397
118560.58358662613
59907.754559270514
-113471.16337386018
15298.139817629179
-47179.22416413374
-47179.22416413374
50993.799392097266
127479.51861702127
75205.8943768997
-119840.40843465045
-72666.1641337386
-21682.324468085106
28041.60980243161
33150.949468085106
-89244.1287993921
-149166.82294832825
-147882.01823708205
144057.48328267477
-116020.85334346505
-33150.949468085106
-19122.674772036473
-61202.51899696048
-99447.86854103343
136408.41337386018
-22957.169452887538
-112201.29825227964
63737.26937689969
103257.46390577508
81580.11930091184
107081.99886018237
6374.224924012158
43334.769756838905
-15313.079407294832
33145.96960486322
96883.23898176292
54808.374620060786
65012.11436170212
-81600.0387537994
-138973.0429331307
-91793.81876899696
-68826.68958966565
-66267.03989361702
-117240.91983282674
-107032.20022796352
91808.75835866261
151691.61360182372
-89254.08852583586
127474.53875379938
22937.25
89234.16907294832
-33150.949468085106
42059.92477203647
-121120.23328267477
-21672.364741641337
-122390.09840425532
-145342.28799392097
108361.82370820668
7649.069908814589
-26781.70440729483
104537.28875379938
136408.41337386018
-72676.12386018237
-52278.60410334346
43344.729483282674
-63747.22910334346
123654.98366261397
-16572.98480243161
2549.689969604863
-113471.16337386018
7649.069908814589
11473.604863221884
-39530.15425531915
-113466.1835106383
124939.78837386018
14023.294832826747
94333.54901215805
82869.90387537994
-43344.729483282674
138953.12348024314
99437.90881458967
43349.709346504555
66291.93920972644
56093.17933130699
-45894.41945288754
-43349.709346504555
-5104.359802431611
90523.9536474164
21677.34460486322
-24227.034574468085
-149146.90349544073
85424.57370820668
-100712.7537993921
-1269.865121580547
47184.20402735562
-7644.090045592705
117290.71846504559
81605.01861702127
56108.11892097264
149161.84308510637
-57358.06458966565
-128744.40387537994
56098.159194528875
160635.44794832825
93078.62348024316
-68841.6291793313
-113466.1835106383
145337.3081306991
-138958.10334346505
124929.8286474164
112186.35866261397
156805.9331306991
3819.55509118541
62462.42439209726
99437.90881458967
-36980.46428571428
94328.56914893616
75215.85410334346
-130039.16831306991
-8938.854483282674
117280.75873860181
-5104.359802431611
-135143.5281155015
136398.4536474164
99432.92895136778
-3834.4946808510635
-89249.10866261397
100712.7537993921
-114741.02849544073
-67581.72378419453
-126214.63335866261
137683.2583586626
84129.80927051671
126199.69376899695
49718.954407294834
8918.935030395136
154246.28343465045
93063.68389057751
-10208.719604863221
-112201.29825227964
85414.61398176292
-70116.47416413373
90504.03419452887
-91798.79863221884
109636.66869300911
-36980.46428571428
-91798.79863221884
-146607.17325227964
-95618.35372340425
68831.66945288754
-70121.45402735562
-110916.49354103343
141492.85372340426
62462.42439209726
142782.63829787233
81580.11930091184
20387.560030395136
86689.45896656535
137678.27849544073
52258.68465045592
-40800.0193768997
-70121.45402735562
128749.38373860181
63737.26937689969
-132583.87841945287
-15308.099544072948
66281.97948328267
15298.139817629179
-140237.92819148937
98153.10410334346
26771.74468085106
-101987.59878419453
-144067.44300911852
-147886.99810030396
160635.44794832825
-137688.2382218845
80310.2541793313
58647.84916413374
-48449.08928571428
141497.83358662613
-89244.1287993921
100712.7537993921
160620.5083586626
91778.8791793313
1274.8449848024316
-66301.89893617021
133843.78381458967
-152986.3780395137
-80320.21390577508
53533.529635258354
70111.49430091186
124929.8286474164
-1289.784574468085
158075.79825227964
116010.89361702127
-53558.42895136778
-102002.53837386018
-107081.99886018237
-75195.93465045592
116040.77279635258
3879.313449848024
-151651.7746960486
52278.60410334346
-124954.72796352583
-51003.759118541035
80305.27431610943
5084.440349544073
29321.434650455925
103262.44376899695
-126219.61322188449
35695.65957446808
-109636.66869300911
-158090.7378419453
-53553.44908814589
-96888.2188449848
73936.02925531914
-61202.51899696048
-98163.06382978724
71391.31914893616
-51003.759118541035
-114741.02849544073
33145.96960486322
-36980.46428571428
63737.26937689969
14028.274696048631
34420.81458966565
-101997.5585106383
35695.65957446808
31871.12462006079
65012.11436170212
-86689.45896656535
-24222.0547112462
44614.59460486322
67566.78419452887
-161900.33320668692
-121115.25341945289
25491.919832826745
66296.91907294832
100717.73366261397
-34425.79445288754
16577.964665653493
-133853.74354103341
28046.589665653493
-141507.7933130699
43354.68920972644
42074.86436170212
144057.48328267477
-35685.69984802431
-160620.5083586626
-86689.45896656535
-82854.96428571428
122400.05813069908
-67561.804331307
-161895.35334346505
-119820.48898176292
91798.79863221884
2559.649696048632
-53528.54977203647
-8913.955167173252
131314.01329787233
149166.82294832825
-34410.85486322188
68846.60904255319
-15298.139817629179
-114731.06876899695
154251.26329787233
-101997.5585106383
-21672.364741641337
-121110.273556231
-112196.31838905775
-47174.24430091185
-163180.15805471124
95603.4141337386
-105822.09346504559
28046.589665653493
24217.074848024316
-138968.06306990882
36970.504559270514
-159360.60296352583
61182.599544072946
150426.72834346505
61187.57940729483
65007.13449848024
24217.074848024316
-43349.709346504555
-2559.649696048632
94328.56914893616
-138963.08320668692
-25506.8594224924
47154.32484802431
105807.15387537994
-146607.17325227964
87954.344224924
-136418.37310030396
14023.294832826747
-40804.99924012158
118550.62386018237
105812.13373860181
-48449.08928571428
49708.994680851065
49713.974544072946
71386.33928571428
-52283.58396656535
147872.05851063828
47169.26443768997
-42079.84422492401
145322.36854103341
-155531.08814589665
25491.919832826745
145317.38867781154
-144062.46314589665
14023.294832826747
42059.92477203647
-154266.20288753798
-70121.45402735562
-26781.70440729483
-131318.99316109423
22947.20972644377
-30606.239361702126
34405.875
98158.08396656535
-53548.46922492401
-29336.37424012158
52263.66451367781
-103262.44376899695
147872.05851063828
-132598.81800911855
25496.899696048633
6374.224924012158
-119845.38829787234
22947.20972644377
10198.759878419452
-100722.71352583586
-87969.28381458967
-118560.58358662613
149151.8833586626
-53553.44908814589
-159355.62310030396
72666.1641337386
48434.14969604863
-54828.29407294832
19122.674772036473
-107096.93844984802
-137693.21808510637
-80320.21390577508
156795.97340425532
10188.800151975684
-76495.67895136778
127479.51861702127
163165.2184650456
-22957.169452887538
-12753.4297112462
-94353.46846504559
-6389.164513677812
-42074.86436170212
6364.265197568388
43329.78989361702
-127484.49848024316
42089.80395136778
-70086.59498480243
155585.86664133737
133923.46162613982
11498.504179331307
-75230.79369300911
-85424.57370820668
94328.56914893616
-152996.33776595743
2549.689969604863
-87969.28381458967
-122395.0782674772
-73945.98898176292
141502.813449848
-100722.71352583586
104532.30889057751
-150431.70820668692
73936.02925531914
76480.73936170213
67566.78419452887
-31876.104483282674
-131318.99316109423
-117290.71846504559
100712.7537993921
-28056.549392097262
-63752.20896656535
-2554.6698328267476
-112191.33852583586
-7659.029635258358
-8928.894756838905
135133.56838905773
-43354.68920972644
-2554.6698328267476
71396.29901215805
-1284.8047112462004
110906.53381458967
40800.0193768997
33145.96960486322
19117.69490881459
138958.10334346505
-62467.40425531915
-133863.7032674772
126209.65349544073
-2549.689969604863
-30601.25949848024
-53543.48936170212
33155.92933130699
94338.52887537994
94338.52887537994
38260.2891337386
-94328.56914893616
-68841.6291793313
-99427.94908814589
-80300.29445288754
141512.77317629178
-53538.50949848024
-31856.185030395136
154266.20288753798
-99432.92895136778
-72651.22454407295
81605.01861702127
42074.86436170212
28056.549392097262
-86679.49924012157
-49718.954407294834
38250.329407294834
72676.12386018237
-95613.37386018237
-155536.06800911852
-31871.12462006079
-99437.90881458967
30586.31990881459
-72676.12386018237
124934.8085106383
-35705.61930091185
-68851.58890577508
151706.55319148937
73936.02925531914
154241.30357142855
47164.28457446808
142777.65843465045
35685.69984802431
-128764.32332826748
138958.10334346505
29311.474924012156
-35705.61930091185
-159355.62310030396
-110926.4532674772
-118575.52317629178
91788.83890577508
141502.813449848
-3839.474544072948
-128764.32332826748
98163.06382978724
-133873.66299392097
73931.04939209727
-45894.41945288754
-131318.99316109423
-38260.2891337386
-35700.63943768997
67561.804331307
15293.159954407294
-50998.77925531915
150426.72834346505
38235.38981762918
144047.523556231
19122.674772036473
-30606.239361702126
-14.939589665653495
-4.979863221884498
57363.04445288754
-98182.98328267477
-154261.2230243161
-56093.17933130699
15288.18009118541
147872.05851063828
123659.96352583586
-52278.60410334346
-128774.28305471124
-109641.648556231
131304.05357142858
-70131.4137537994
65012.11436170212
-33150.949468085106
118550.62386018237
-73950.9688449848
-24232.01443768997
70106.51443768997
-85424.57370820668
14023.294832826747
-61197.5391337386
-44634.514057750755
-155536.06800911852
147882.01823708205
-62482.343844984796
-112196.31838905775
4.979863221884498
-112191.33852583586
-26781.70440729483
11478.584726443769
-146607.17325227964
104527.32902735562
142777.65843465045
47169.26443768997
-45909.35904255319
159345.66337386018
-124934.8085106383
-71401.27887537994
-38260.2891337386
135128.58852583586
57358.06458966565
121095.33396656535
-63747.22910334346
-12753.4297112462
-89254.08852583586
-127494.45820668692
17847.82978723404
-121125.21314589665
-159370.5626899696
118560.58358662613
-71401.27887537994
126189.73404255319
-65022.07408814589
22972.10904255319
-115976.03457446808
35755.417933130695
-92998.945668693
-144037.56382978722
33131.03001519757
-30606.239361702126
80310.2541793313
14013.335106382978
-22952.189589665653
-138963.08320668692
3814.575227963526
20392.53989361702
57368.02431610942
-147891.97796352583
-58657.80889057751
-81595.05889057751
-161910.2929331307
146597.21352583586
-122390.09840425532
65017.09422492401
-93073.64361702127
-59927.67401215805
-126209.65349544073
34415.83472644377
117270.79901215805
-119840.40843465045
45894.41945288754
-62477.363981762916
-30601.25949848024
-132583.87841945287
-99447.86854103343
-65027.05395136778
-67566.78419452887
116005.91375379938
-116020.85334346505
38250.329407294834
-145332.3282674772
-9.959726443768997
110911.51367781154
86689.45896656535
73936.02925531914
-14028.274696048631
119840.40843465045
34425.79445288754
44619.574468085106
45899.39931610942
-156800.9532674772
26771.74468085106
-75215.85410334346
95623.33358662613
87969.28381458967
-121105.29369300911
-147867.0786474164
28056.549392097262
71396.29901215805
-63727.30965045592
98178.00341945289
-155526.10828267477
-62457.44452887538
-98148.12424012157
-81585.09916413373
-8923.91489361702
-21662.405015197568
-123654.98366261397
-112191.33852583586
-26771.74468085106
104537.28875379938
-132593.83814589665
80315.23404255319
-44619.574468085106
-160640.42781155015
-16582.944528875378
8923.91489361702
100702.79407294832
29311.474924012156
-59922.69414893617
147877.03837386018
31861.16489361702
-70126.43389057751
101982.61892097264
-141522.73290273556
-21687.30433130699
107081.99886018237
-40809.97910334347
-11488.544452887538
-93068.66375379938
29316.45478723404
75200.91451367781
-154266.20288753798
71391.31914893616
47159.3047112462
127474.53875379938
-12753.4297112462
30586.31990881459
-155546.0277355623
-19127.654635258357
-152986.3780395137
93048.74430091184
-39530.15425531915
-48449.08928571428
-62482.343844984796
123650.00379939209
-151711.53305471124
-36985.44414893617
35685.69984802431
-89244.1287993921
149151.8833586626
7639.11018237082
-15313.079407294832
-44629.534194528875
101977.63905775076
-161915.27279635257
107081.99886018237
132573.91869300912
84129.80927051671
-38250.329407294834
-51003.759118541035
30581.340045592704
-26781.70440729483
-132588.85828267477
-89254.08852583586
-45909.35904255319
142777.65843465045
-25506.8594224924
35685.69984802431
100707.77393617021
-109646.62841945289
108346.88411854103
11468.625
-75220.83396656535
-93078.62348024316
75205.8943768997
72661.18427051671
-126224.59308510637
109626.70896656535
-154256.24316109423
-73945.98898176292
77755.58434650456
-93068.66375379938
132583.87841945287
65007.13449848024
-47179.22416413374
-50993.799392097266
86684.47910334346
-100722.71352583586
-91793.81876899696
76480.73936170213
-25516.81914893617
-82874.88373860181
142777.65843465045
107072.0391337386
-81605.01861702127
141502.813449848
-90528.9335106383
-11493.524316109422
-25506.8594224924
-14033.254559270516
-53558.42895136778
-66301.89893617021
84134.7891337386
-70131.4137537994
-131323.9730243161
116000.93389057751
115995.95402735562
-17857.78951367781
-136378.53419452888
72720.94262917934
94398.28723404255
43399.5079787234
44634.514057750755
96868.29939209727
33131.03001519757
163175.17819148937
-122395.0782674772
-12763.38943768997
-96893.19870820668
-141512.77317629178
158065.83852583586
145322.36854103341
-24227.034574468085
-110921.47340425532
141497.83358662613
-71396.29901215805
26766.764817629177
-73955.94870820668
141502.813449848
-116015.87348024316
-44634.514057750755
98158.08396656535
-12753.4297112462
40780.09992401215
66281.97948328267
119840.40843465045
53538.50949848024
113451.24392097264
-99437.90881458967
82859.94414893616
-15313.079407294832
-86694.43882978724
70116.47416413373
-122395.0782674772
53538.50949848024
-26771.74468085106
-100717.73366261397
163170.19832826746
-8928.894756838905
146607.17325227964
127479.51861702127
-14023.294832826747
124939.78837386018
-121120.23328267477
-82869.90387537994
-44614.59460486322
33145.96960486322
-85419.5938449848
54828.29407294832
110921.47340425532
-47169.26443768997
-65012.11436170212
-91778.8791793313
123664.94338905775
-67561.804331307
137698.19794832825
149161.84308510637
-77765.54407294832
-145317.38867781154
151716.5129179331
109636.66869300911
-17842.849924012156
108371.78343465045
-44624.55433130699
-142787.61816109423
-161905.31306990882
50988.81952887538
-136418.37310030396
-128764.32332826748
35690.6797112462
-70131.4137537994
-47179.22416413374
-1284.8047112462004
77750.60448328267
-122400.05813069908
-70126.43389057751
-19137.614361702126
-90533.91337386018
-42079.84422492401
-68851.58890577508
146587.25379939209
123650.00379939209
42064.904635258354
29306.495060790272
5089.420212765957
107081.99886018237
-42084.82408814589
118545.64399696048
-59927.67401215805
-87974.26367781154
22932.270136778116
91778.8791793313
48439.129559270514
-155551.0075987842
90499.054331307
-2559.649696048632
1259.905395136778
108346.88411854103
-140237.92819148937
-89249.10866261397
42054.944908814585
-7664.009498480243
119825.4688449848
-30616.199088145895
-147896.9578267477
151701.57332826746
-57382.963905775076
155511.16869300912
-159365.5828267477
133848.76367781154
86669.53951367781
-147896.9578267477
-35705.61930091185
-8943.834346504558
-160645.40767477202
-49728.9141337386
25481.960106382976
-66311.85866261397
-145342.28799392097
68831.66945288754
-33165.889057750755
-35710.59916413374
-141517.7530395137
42054.944908814585
128744.40387537994
-150441.6679331307
-161920.25265957447
152961.47872340426
-47184.20402735562
109626.70896656535
112166.43920972644
-136423.35296352583
121105.29369300911
-112201.29825227964
10188.800151975684
100707.77393617021
-94353.46846504559
2534.75037993921
-38255.309270516715
103257.46390577508
-65032.03381458966
-77775.5037993921
-58647.84916413374
141492.85372340426
124919.86892097264
118555.60372340425
-86704.398556231
-150451.62765957447
103252.48404255319
62457.44452887538
160610.54863221885
-118575.52317629178
56083.21960486322
84119.84954407295
-140252.86778115502
-96903.15843465045
20382.58016717325
-14043.214285714284
73931.04939209727
85404.65425531914
90494.0744680851
-61217.45858662614
-141522.73290273556
147862.09878419453
48439.129559270514
145367.1873100304
80365.03267477204
-118505.80509118541
19172.473404255317
44619.574468085106
-95643.25303951367
-144072.42287234042
-48454.06914893617
31856.185030395136
114721.10904255319
-20407.479483282674
-82879.8636018237
-77785.46352583586
-29331.394376899694
-118570.54331306991
42049.965045592704
-100727.69338905775
137678.27849544073
-113476.14323708205
155516.148556231
12743.46998480243
-39535.134118541035
-161920.25265957447
-133863.7032674772
101977.63905775076
-98182.98328267477
-45904.37917933131
136403.43351063828
70101.53457446808
-49733.89399696048
-110916.49354103343
16563.02507598784
86674.5193768997
77760.56420972644
101982.61892097264
-12763.38943768997
47164.28457446808
-14028.274696048631
-117300.67819148935
91778.8791793313
-87964.30395136778
131304.05357142858
145322.36854103341
67566.78419452887
10198.759878419452
-17862.769376899694
-58647.84916413374
-114731.06876899695
-71396.29901215805
-8928.894756838905
29326.41451367781
-71391.31914893616
117285.7386018237
65022.07408814589
-57363.04445288754
154256.24316109423
-144052.50341945287
-25486.93996960486
-96888.2188449848
-156805.9331306991
-53533.529635258354
-8918.935030395136
-108366.80357142857
39525.174392097266
-155526.10828267477
77760.56420972644
77760.56420972644
124929.8286474164
131299.07370820668
113451.24392097264
-127489.47834346505
142772.67857142855
10178.840425531915
-107096.93844984802
-127489.47834346505
-45914.338905775076
15288.18009118541
-71401.27887537994
-131328.95288753798
161890.37348024314
-72676.12386018237
-137703.17781155015
-105832.05319148935
113456.22378419452
-45904.37917933131
-159375.54255319148
-126224.59308510637
65012.11436170212
128744.40387537994
105797.19414893616
96883.23898176292
31861.16489361702
-90533.91337386018
-141517.7530395137
-127494.45820668692
-20417.439209726443
132573.91869300912
33140.98974164134
-66311.85866261397
-35710.59916413374
56088.199468085106
-33165.889057750755
-130049.12803951367
-123664.94338905775
113451.24392097264
95598.43427051671
-73950.9688449848
-44629.534194528875
-100732.67325227964
-149171.80281155015
155526.10828267477
6364.265197568388
36955.564969604864
-156815.89285714284
118550.62386018237
-26791.6641337386
-49733.89399696048
110906.53381458967
-54833.27393617021
-149176.78267477202
-2559.649696048632
73936.02925531914
-151721.49278115502
87959.32408814589
-126219.61322188449
-96908.13829787234
155521.12841945287
43339.749620060786
-116025.83320668692
20387.560030395136
38240.369680851065
59907.754559270514
-117300.67819148935
-24232.01443768997
-3834.4946808510635
24212.094984802432
-104542.26861702127
154256.24316109423
58632.90957446808
90504.03419452887
24222.0547112462
-160640.42781155015
104527.32902735562
-116010.89361702127
-31876.104483282674
-49733.89399696048
-68851.58890577508
145327.34840425532
22932.270136778116
-57387.943768996956
12743.46998480243
-53553.44908814589
22937.25
-79050.34878419453
-8938.854483282674
5084.440349544073
-108371.78343465045
31866.144756838905
-19142.59422492401
-79055.3286474164
140227.9684650456
-31886.064209726443
-38265.26899696048
-62482.343844984796
-68846.60904255319
156820.87272036474
-123615.1447568389
-50924.081306990876
-103207.66527355622
-3814.575227963526
-62477.363981762916
-156820.87272036474
-132598.81800911855
-70121.45402735562
80310.2541793313
-146622.1128419453
-126219.61322188449
-161910.2929331307
109626.70896656535
8918.935030395136
96888.2188449848
-61207.49886018237
-160645.40767477202
34420.81458966565
-85419.5938449848
-118570.54331306991
-79045.36892097264
-75215.85410334346
-95623.33358662613
1264.8852583586627
70116.47416413373
-94343.50873860181
103252.48404255319
38245.349544072946
1274.8449848024316
117275.77887537994
17847.82978723404
126209.65349544073
-116020.85334346505
131304.05357142858
62472.38411854103
-52273.62424012158
-121120.23328267477
-53543.48936170212
-68841.6291793313
62462.42439209726
155531.08814589665
159360.60296352583
38245.349544072946
5099.379939209726
-40790.05965045592
11478.584726443769
14023.294832826747
35705.61930091185
81600.0387537994
-62467.40425531915
-8918.935030395136
70131.4137537994
-105807.15387537994
-95608.39399696048
-135118.62879939209
-87954.344224924
21682.324468085106
63757.18882978723
-61182.599544072946
-133853.74354103341
-93053.72416413373
-50978.85980243161
-50988.81952887538
-62467.40425531915
91798.79863221884
84144.74886018237
3819.55509118541
-114736.04863221884
12753.4297112462
-6384.184650455927
-30601.25949848024
-126209.65349544073
-126219.61322188449
133848.76367781154
30596.279635258357
54813.354483282674
14013.335106382978
-84144.74886018237
-8928.894756838905
35680.71998480243
14013.335106382978
-137683.2583586626
36960.544832826745
-33160.909194528875
-89239.14893617021
53538.50949848024
137668.31876899695
-71396.29901215805
22947.20972644377
59907.754559270514
79035.40919452887
-126209.65349544073
53538.50949848024
7639.11018237082
-104542.26861702127
-89244.1287993921
127474.53875379938
49718.954407294834
-7654.049772036474
15288.18009118541
85409.63411854103
-47174.24430091185
79030.429331307
-135143.5281155015
7649.069908814589
150426.72834346505
-116020.85334346505
-29326.41451367781
-21677.34460486322
-110926.4532674772
5094.400075987842
-140232.94832826746
-145342.28799392097
-100722.71352583586
159355.62310030396
132578.898556231
-154271.18275075988
-59927.67401215805
-2554.6698328267476
-108371.78343465045
149151.8833586626
66291.93920972644
2539.730243161094
61182.599544072946
130034.18844984802
-67571.76405775076
-155541.04787234042
-126214.63335866261
-114741.02849544073
-42084.82408814589
58632.90957446808
-25501.879559270517
35695.65957446808
-89244.1287993921
-103262.44376899695
-21677.34460486322
76485.719224924
122390.09840425532
-81590.07902735562
-79050.34878419453
30596.279635258357
53548.46922492401
-156810.91299392097
52263.66451367781
-39525.174392097266
-108371.78343465045
79030.429331307
-53548.46922492401
-77770.52393617021
99427.94908814589
-39530.15425531915
-119840.40843465045
-73950.9688449848
-33155.92933130699
99437.90881458967
150426.72834346505
75205.8943768997
-34425.79445288754
29321.434650455925
-117300.67819148935
-19137.614361702126
-107091.95858662613
57373.00417933131
124964.68768996959
-64957.3358662614
105881.8518237082
70156.3130699088
160635.44794832825
138948.14361702127
-6394.144376899696
-48449.08928571428
7654.049772036474
-95623.33358662613
140227.9684650456
-159355.62310030396
-144062.46314589665
146602.19338905773
-149156.8632218845
-151706.55319148937
121105.29369300911
2549.689969604863
-82864.92401215805
150426.72834346505
-101992.5786474164
62472.38411854103
99437.90881458967
76485.719224924
-1274.8449848024316
42074.86436170212
22942.229863221884
48444.1094224924
16577.964665653493
-144062.46314589665
-76495.67895136778
53548.46922492401
-152981.39817629178
-45899.39931610942
9.959726443768997
89244.1287993921
131304.05357142858
-145327.34840425532
93073.64361702127
-138958.10334346505
-50993.799392097266
67576.74392097264
127489.47834346505
-91788.83890577508
-135123.608662614
152991.35790273556
-34425.79445288754
-101982.61892097264
116025.83320668692
-108356.8438449848
-127474.53875379938
103277.38335866261
14033.254559270516
20407.479483282674
-19107.73518237082
-118545.64399696048
135143.5281155015
-1259.905395136778
-63727.30965045592
-122375.15881458965
-133843.78381458967
31891.044072948327
-54808.374620060786
31881.08434650456
-56083.21960486322
73950.9688449848
-159355.62310030396
14028.274696048631
-6369.245060790273
87964.30395136778
113456.22378419452
-63742.24924012158
80315.23404255319
-70126.43389057751
75215.85410334346
114736.04863221884
150421.74848024314
149151.8833586626
-82864.92401215805
-77775.5037993921
-59927.67401215805
56098.159194528875
-72671.14399696048
30591.299772036473
-147882.01823708205
110906.53381458967
98153.10410334346
-52273.62424012158
-52268.64437689969
90509.01405775076
94333.54901215805
87969.28381458967
156800.9532674772
-34435.75417933131
94338.52887537994
160630.46808510637
-66301.89893617021
-42074.86436170212
14028.274696048631
-73945.98898176292
-1284.8047112462004
6374.224924012158
-140237.92819148937
-145342.28799392097
-140232.94832826746
-133858.72340425532
-70126.43389057751
-144062.46314589665
93063.68389057751
11468.625
44614.59460486322
-33145.96960486322
93058.70402735562
127474.53875379938
-151706.55319148937
96888.2188449848
-114746.00835866261
-66296.91907294832
-73941.00911854103
160620.5083586626
35685.69984802431
121110.273556231
-53548.46922492401
-6384.184650455927
85414.61398176292
121105.29369300911
-155541.04787234042
50993.799392097266
-117285.7386018237
38240.369680851065
117280.75873860181
15303.119680851063
-35700.63943768997
-51003.759118541035
-146607.17325227964
-101987.59878419453
-121115.25341945289
118565.56344984802
-33140.98974164134
98158.08396656535
-135138.54825227964
119840.40843465045
-103267.42363221884
-158090.7378419453
112186.35866261397
38245.349544072946
112176.39893617021
-71396.29901215805
43344.729483282674
93053.72416413373
-26781.70440729483
122385.11854103343
112181.37879939209
103252.48404255319
-121110.273556231
116010.89361702127
-14.939589665653495
-145337.3081306991
14023.294832826747
-26786.684270516715
-62472.38411854103
-121085.37424012157
-101947.75987841944
91843.6174012158
119895.18693009118
-34400.89513677811
-145347.26785714284
136398.4536474164
137683.2583586626
101977.63905775076
109626.70896656535
-16568.004939209724
123659.96352583586
114726.08890577508
89244.1287993921
20402.49962006079
130029.20858662613
-110911.51367781154
-38245.349544072946
127479.51861702127
-4.979863221884498
150436.68806990882
36970.504559270514
14018.314969604862
20402.49962006079
135138.54825227964
86684.47910334346
-28051.569528875378
-93058.70402735562
119835.42857142857
-35700.63943768997
94343.50873860181
108361.82370820668
-44624.55433130699
-14018.314969604862
-96883.23898176292
-62472.38411854103
150436.68806990882
151716.5129179331
94338.52887537994
-90513.99392097264
-110901.55395136778
95618.35372340425
22947.20972644377
-76485.719224924
81600.0387537994
4.979863221884498
-73936.02925531914
-113451.24392097264
-76485.719224924
140237.92819148937
70131.4137537994
1289.784574468085
136413.39323708205
-16558.045212765956
144077.4027355623
-31866.144756838905
99452.84840425532
-42049.965045592704
-73931.04939209727
-6364.265197568388
12773.349164133739
-45884.45972644377
-149151.8833586626
7668.989361702127
45909.35904255319
-158080.7781155015
22957.169452887538
-77755.58434650456
-112191.33852583586
-138963.08320668692
-59912.7344224924
124934.8085106383
158075.79825227964
49723.934270516715
116010.89361702127
28041.60980243161
137683.2583586626
-38250.329407294834
84129.80927051671
-24227.034574468085
-163175.17819148937
-33150.949468085106
-72676.12386018237
-154256.24316109423
124934.8085106383
-128769.30319148935
-81595.05889057751
17852.809650455925
19117.69490881459
52263.66451367781
79045.36892097264
-99442.88867781154
-136418.37310030396
-151706.55319148937
-12748.449848024316
126204.67363221884
29321.434650455925
-127479.51861702127
50988.81952887538
-142797.57788753798
79040.38905775076
141507.7933130699
128754.3636018237
159355.62310030396
-149156.8632218845
138953.12348024314
12748.449848024316
-96888.2188449848
-28056.549392097262
58637.88943768997
-22947.20972644377
-151711.53305471124
-87974.26367781154
50993.799392097266
-91793.81876899696
-96898.17857142857
-42074.86436170212
137683.2583586626
-10208.719604863221
90509.01405775076
-12748.449848024316
-14028.274696048631
-107096.93844984802
21672.364741641337
48444.1094224924
-25511.839285714286
128754.3636018237
154261.2230243161
-159360.60296352583
156800.9532674772
118565.56344984802
31871.12462006079
49713.974544072946
10203.739741641337
52273.62424012158
-130039.16831306991
56093.17933130699
101992.5786474164
31871.12462006079
-127489.47834346505
89244.1287993921
91788.83890577508
-149166.82294832825
70116.47416413373
124934.8085106383
126199.69376899695
-124939.78837386018
-45894.41945288754
-107096.93844984802
-30606.239361702126
67571.76405775076
118555.60372340425
47159.3047112462
63742.24924012158
136403.43351063828
85404.65425531914
82864.92401215805
-133863.7032674772
-126229.57294832826
-154266.20288753798
-84129.80927051671
-67541.88487841946
154301.06193009118
-94273.79065349544
-107032.20022796352
86699.41869300911
-49733.89399696048
12743.46998480243
118550.62386018237
149151.8833586626
110916.49354103343
-87969.28381458967
140222.98860182372
95613.37386018237
26776.724544072946
137678.27849544073
-29326.41451367781
-47169.26443768997
-67571.76405775076
-30601.25949848024
16577.964665653493
36970.504559270514
146602.19338905773
113466.1835106383
-155531.08814589665
117275.77887537994
-22947.20972644377
-50988.81952887538
16568.004939209724
-61197.5391337386
1284.8047112462004
-112186.35866261397
-9.959726443768997
-53543.48936170212
-133853.74354103341
-57373.00417933131
20402.49962006079
72676.12386018237
70116.47416413373
79040.38905775076
9.959726443768997
-96888.2188449848
21672.364741641337
118570.54331306991
150441.6679331307
-67566.78419452887
108366.80357142857
-130024.22872340425
5104.359802431611
-34420.81458966565
-86674.5193768997
28061.529255319147
-103257.46390577508
-126194.71390577508
-140218.0087386018
-68836.64931610943
124949.74810030394
-99422.969224924
93073.64361702127
-112171.41907294832
42094.78381458966
-154241.30357142855
-17842.849924012156
98178.00341945289
94353.46846504559
160635.44794832825
-91783.85904255319
114746.00835866261
-30596.279635258357
56093.17933130699
156810.91299392097
118560.58358662613
147877.03837386018
84144.74886018237
-132583.87841945287
-12758.409574468085
3824.5349544072947
147882.01823708205
49713.974544072946
-124939.78837386018
12753.4297112462
-98168.04369300911
146597.21352583586
-24227.034574468085
93063.68389057751
15293.159954407294
-142787.61816109423
-65017.09422492401
-155536.06800911852
8918.935030395136
-140232.94832826746
-71396.29901215805
39515.2146656535
-63742.24924012158
82864.92401215805
-8933.87462006079
-95618.35372340425
-156805.9331306991
-105817.1136018237
-159360.60296352583
-89239.14893617021
5099.379939209726
-43354.68920972644
45894.41945288754
161905.31306990882
-130044.14817629178
16572.98480243161
43349.709346504555
16568.004939209724
-128764.32332826748
-135133.56838905773
-161910.2929331307
21667.384878419452
75215.85410334346
137683.2583586626
-90523.9536474164
118555.60372340425
-137683.2583586626
-7659.029635258358
133853.74354103341
1279.824848024316
149151.8833586626
21667.384878419452
-101987.59878419453
-14028.274696048631
-144067.44300911852
-2554.6698328267476
17852.809650455925
116005.91375379938
138953.12348024314
43349.709346504555
30596.279635258357
-31881.08434650456
-146607.17325227964
-98163.06382978724
127479.51861702127
-40795.03951367781
17857.78951367781
93063.68389057751
-29326.41451367781
145337.3081306991
-57368.02431610942
-36975.4844224924
-108361.82370820668
-163180.15805471124
-126219.61322188449
38240.369680851065
20402.49962006079
-150436.68806990882
-161915.27279635257
21672.364741641337
112181.37879939209
-150441.6679331307
-90513.99392097264
-136408.41337386018
-132593.83814589665
-100717.73366261397
-47169.26443768997
107081.99886018237
110901.55395136778
95608.39399696048
-132588.85828267477
-154246.28343465045
118605.4023556231
-81525.34080547112
126274.39171732523
-141467.95440729483
161910.2929331307
-138973.0429331307
-82874.88373860181
87969.28381458967
-135133.56838905773
96883.23898176292
86694.43882978724
-138958.10334346505
-14.939589665653495
-159355.62310030396
-54813.354483282674
105807.15387537994
22947.20972644377
-163175.17819148937
-3829.514817629179
-35700.63943768997
44624.55433130699
-26771.74468085106
159350.64323708205
80315.23404255319
86694.43882978724
-146612.1531155015
-57373.00417933131
-155526.10828267477
-70116.47416413373
-80320.21390577508
-163175.17819148937
-101982.61892097264
-87969.28381458967
87969.28381458967
91798.79863221884
-56098.159194528875
-142782.63829787233
144067.44300911852
-47169.26443768997
135133.56838905773
31881.08434650456
-49713.974544072946
11473.604863221884
70121.45402735562
68856.56876899696
-118555.60372340425
-118555.60372340425
-161890.37348024314
-1269.865121580547
-128754.3636018237
-52253.70478723404
-85399.67439209727
90523.9536474164
121125.21314589665
-39500.27507598784
33160.909194528875
-14013.335106382978
77790.44338905775
-118545.64399696048
70126.43389057751
87984.22340425532
-59902.77469604863
-24217.074848024316
-81580.11930091184
-49704.01481762918
155536.06800911852
-161905.31306990882
-25486.93996960486
4.979863221884498
-44629.534194528875
82869.90387537994
24227.034574468085
127479.51861702127
-11473.604863221884
67571.76405775076
-52278.60410334346
-56103.139057750755
113461.2036474164
-86694.43882978724
79035.40919452887
-3824.5349544072947
5104.359802431611
-126219.61322188449
121105.29369300911
26776.724544072946
53538.50949848024
59912.7344224924
21677.34460486322
-70121.45402735562
-127494.45820668692
-38245.349544072946
72671.14399696048
-57377.98404255319
-42074.86436170212
14028.274696048631
48439.129559270514
-161910.2929331307
48449.08928571428
158075.79825227964
80305.27431610943
-96888.2188449848
14028.274696048631
-14033.254559270516
3824.5349544072947
-14023.294832826747
1269.865121580547
81585.09916413373
-31871.12462006079
-79045.36892097264
-59927.67401215805
-65022.07408814589
80315.23404255319
-43354.68920972644
119830.44870820668
-75215.85410334346
48439.129559270514
-5109.339665653495
-145332.3282674772
110906.53381458967
130024.22872340425
100712.7537993921
104537.28875379938
-107096.93844984802
-15303.119680851063
-8923.91489361702
146602.19338905773
-24232.01443768997
-1279.824848024316
-140237.92819148937
144047.523556231
65017.09422492401
-10198.759878419452
-85424.57370820668
161900.33320668692
52273.62424012158
-94343.50873860181
-85419.5938449848
-132578.898556231
113461.2036474164
89234.16907294832
124939.78837386018
75220.83396656535
-155536.06800911852
-156805.9331306991
-68841.6291793313
-15308.099544072948
81585.09916413373
104537.28875379938
-22957.169452887538
16563.02507598784
-79045.36892097264
35695.65957446808
-127494.45820668692
132578.898556231
133858.72340425532
-47179.22416413374
-100722.71352583586
-161905.31306990882
-121115.25341945289
61182.599544072946
19122.674772036473
66286.95934650456
-71411.2386018237
103267.42363221884
-24187.19566869301
161955.11170212764
65086.81231003039
122449.85676291793
-91778.8791793313
19107.73518237082
108356.8438449848
86689.45896656535
-48454.06914893617
-95618.35372340425
63747.22910334346
17842.849924012156
24217.074848024316
70121.45402735562
-59922.69414893617
-86699.41869300911
-137683.2583586626
109636.66869300911
-71401.27887537994
93063.68389057751
7654.049772036474
73936.02925531914
-133863.7032674772
65022.07408814589
-22952.189589665653
-20407.479483282674
114736.04863221884
110911.51367781154
91783.85904255319
104537.28875379938
112191.33852583586
105807.15387537994
58637.88943768997
34430.77431610942
-38245.349544072946
-113471.16337386018
98168.04369300911
119840.40843465045
124929.8286474164
114741.02849544073
-52263.66451367781
59917.71428571428
-71391.31914893616
138963.08320668692
-56093.17933130699
59922.69414893617
137693.21808510637
-8918.935030395136
-72671.14399696048
-161900.33320668692
6394.144376899696
145342.28799392097
113471.16337386018
-66276.99962006079
124944.76823708205
-82859.94414893616
-52253.70478723404
2569.609422492401
-124924.84878419452
127499.4380699088
26791.6641337386
154266.20288753798
-25491.919832826745
-138948.14361702127
116015.87348024316
-140232.94832826746
-68836.64931610943
133863.7032674772
-35700.63943768997
-53543.48936170212
-118555.60372340425
133853.74354103341
-51003.759118541035
127484.49848024316
-10203.739741641337
-30606.239361702126
22942.229863221884
-84149.72872340425
163170.19832826746
155526.10828267477
17847.82978723404
89234.16907294832
-15308.099544072948
112186.35866261397
-77770.52393617021
15288.18009118541
-161910.2929331307
61192.559270516715
156795.97340425532
-136413.39323708205
-117285.7386018237
-110921.47340425532
-17857.78951367781
-104537.28875379938
-54828.29407294832
-128774.28305471124
45894.41945288754
79040.38905775076
21662.405015197568
114731.06876899695
-155531.08814589665
19112.715045592704
-150441.6679331307
-109636.66869300911
138953.12348024314
-16582.944528875378
73941.00911854103
-57373.00417933131
68831.66945288754
40790.05965045592
-68846.60904255319
105802.17401215805
-103272.40349544073
81590.07902735562
-5109.339665653495
131294.0938449848
-75220.83396656535
63742.24924012158
84129.80927051671
-156810.91299392097
105812.13373860181
151696.5934650456
-104547.24848024316
114736.04863221884
79035.40919452887
84129.80927051671
57363.04445288754
44614.59460486322
84129.80927051671
39515.2146656535
53543.48936170212
40790.05965045592
-54828.29407294832
-86694.43882978724
146602.19338905773
7644.090045592705
-95613.37386018237
-59917.71428571428
-68851.58890577508
94338.52887537994
128764.32332826748
-61202.51899696048
65012.11436170212
10203.739741641337
152976.4183130699
-118570.54331306991
7649.069908814589
-104542.26861702127
104527.32902735562
86684.47910334346
-24227.034574468085
-15313.079407294832
-14.939589665653495
-66296.91907294832
-147886.99810030396
-154266.20288753798
-19132.63449848024
-116015.87348024316
71381.3594224924
50988.81952887538
-135133.56838905773
-85429.55357142857
73926.06952887538
-12753.4297112462
-116000.93389057751
-62437.52507598784
-17788.071428571428
145407.02621580547
-118525.72454407295
73936.02925531914
135123.608662614
160620.5083586626
99427.94908814589
66291.93920972644
-19127.654635258357
147872.05851063828
17847.82978723404
95613.37386018237
-33155.92933130699
-31876.104483282674
-30596.279635258357
76485.719224924
-65027.05395136778
-90513.99392097264
152976.4183130699
-110926.4532674772
66291.93920972644
47174.24430091185
-70126.43389057751
-98168.04369300911
-80315.23404255319
61187.57940729483
158075.79825227964
1279.824848024316
-123659.96352583586
-81595.05889057751
-61192.559270516715
-25496.899696048633
108356.8438449848
-10203.739741641337
65022.07408814589
-159360.60296352583
-76495.67895136778
12758.409574468085
-103262.44376899695
-59922.69414893617
-131304.05357142858
58647.84916413374
-57373.00417933131
1279.824848024316
51003.759118541035
49723.934270516715
124939.78837386018
-100702.79407294832
-85409.63411854103
109641.648556231
-59907.754559270514
-44609.61474164134
-34415.83472644377
-90504.03419452887
90528.9335106383
-43339.749620060786
-116000.93389057751
-73921.08966565349
109651.60828267477
140237.92819148937
105827.07332826748
-144042.54369300912
-121110.273556231
-161900.33320668692
-70106.51443768997
-156805.9331306991
28046.589665653493
80320.21390577508
48444.1094224924
-48454.06914893617
31871.12462006079
39520.19452887538
87954.344224924
80310.2541793313
59917.71428571428
70106.51443768997
116000.93389057751
-152981.39817629178
47164.28457446808
-94353.46846504559
-110916.49354103343
127479.51861702127
-98178.00341945289
29316.45478723404
-156805.9331306991
11468.625
107077.01899696048
31871.12462006079
-96893.19870820668
-62482.343844984796
123654.98366261397
17847.82978723404
94328.56914893616
24217.074848024316
-39525.174392097266
-122395.0782674772
-68851.58890577508
-113461.2036474164
128754.3636018237
159340.68351063828
16568.004939209724
39515.2146656535
-145342.28799392097
-12753.4297112462
-124934.8085106383
-8933.87462006079
-29336.37424012158
105807.15387537994
-119840.40843465045
-25511.839285714286
-30606.239361702126
3824.5349544072947
-5114.31952887538
-58652.82902735562
39520.19452887538
140222.98860182372
-24236.994300911854
67561.804331307
14018.314969604862
-72681.10372340425
96883.23898176292
25496.899696048633
59907.754559270514
-79050.34878419453
2549.689969604863
-126219.61322188449
-66306.8787993921
7649.069908814589
100707.77393617021
96873.27925531914
-17852.809650455925
15298.139817629179
-102002.53837386018
-35705.61930091185
39520.19452887538
-52278.60410334346
-38255.309270516715
-3824.5349544072947
159350.64323708205
12738.490121580546
75220.83396656535
35700.63943768997
-118570.54331306991
-160635.44794832825
-54818.334346504555
155526.10828267477
-90528.9335106383
5094.400075987842
91783.85904255319
-26786.684270516715
110906.53381458967
-12753.4297112462
105802.17401215805
-122395.0782674772
-127489.47834346505
161895.35334346505
-47184.20402735562
54813.354483282674
5094.400075987842
-85429.55357142857
108356.8438449848
53538.50949848024
133838.80395136776
126199.69376899695
71406.25873860183
-8894.035714285714
-44564.79597264437
30670.977583586624
-144017.6443768997
45889.43958966565
-2564.6295592705164
116005.91375379938
161895.35334346505
-113466.1835106383
-61192.559270516715
94328.56914893616
14013.335106382978
150431.70820668692
43339.749620060786
-1289.784574468085
73941.00911854103
-44624.55433130699
58632.90957446808
56093.17933130699
-14023.294832826747
24217.074848024316
38240.369680851065
-127484.49848024316
108361.82370820668
-122395.0782674772
-147886.99810030396
-108361.82370820668
-33155.92933130699
112181.37879939209
14028.274696048631
-136413.39323708205
66286.95934650456
71396.29901215805
40795.03951367781
-29331.394376899694
38250.329407294834
-81590.07902735562
104532.30889057751
-48444.1094224924
-137678.27849544073
-56098.159194528875
-94343.50873860181
152986.3780395137
11478.584726443769
116010.89361702127
-15293.159954407294
-21667.384878419452
20397.519756838905
127489.47834346505
95628.31344984802
-135128.58852583586
146612.1531155015
-122370.17895136778
-76480.73936170213
121115.25341945289
-38235.38981762918
82879.8636018237
-135128.58852583586
76505.63867781154
15318.059270516716
56103.139057750755
-6369.245060790273
80325.19376899696
-29316.45478723404
-70116.47416413373
-127479.51861702127
90523.9536474164
35695.65957446808
5099.379939209726
-101987.59878419453
22942.229863221884
-138968.06306990882
119835.42857142857
-63747.22910334346
107077.01899696048
-150436.68806990882
-140237.92819148937
14013.335106382978
-108371.78343465045
-100717.73366261397
-99452.84840425532
20387.560030395136
142782.63829787233
33140.98974164134
121100.31382978724
-7654.049772036474
-24227.034574468085
90504.03419452887
-141517.7530395137
38245.349544072946
-12758.409574468085
116000.93389057751
-76495.67895136778
101982.61892097264
57358.06458966565
154251.26329787233
61192.559270516715
52258.68465045592
-87974.26367781154
98163.06382978724
118550.62386018237
70106.51443768997
96888.2188449848
-17857.78951367781
-68856.56876899696
-45899.39931610942
75215.85410334346
96878.25911854103
-33155.92933130699
6374.224924012158
142772.67857142855
155521.12841945287
127484.49848024316
-24232.01443768997
155516.148556231
108356.8438449848
-101992.5786474164
-57382.963905775076
11468.625
127484.49848024316
-76505.63867781154
26761.784954407292
66291.93920972644
-110921.47340425532
-29336.37424012158
85414.61398176292
48444.1094224924
-5114.31952887538
-14033.254559270516
86689.45896656535
-109646.62841945289
-113471.16337386018
-163180.15805471124
130029.20858662613
62457.44452887538
19122.674772036473
-61192.559270516715
-47179.22416413374
62462.42439209726
56098.159194528875
-80320.21390577508
-99447.86854103343
141507.7933130699
7649.069908814589
80305.27431610943
40790.05965045592
-104542.26861702127
24212.094984802432
-99447.86854103343
36970.504559270514
-150441.6679331307
17837.870060790272
-67571.76405775076
25491.919832826745
6364.265197568388
-132588.85828267477
-154261.2230243161
-36985.44414893617
14018.314969604862
7649.069908814589
103247.5041793313
103242.52431610941
-2559.649696048632
67571.76405775076
91813.7382218845
67626.54255319148
-6304.506838905775
-64977.255319148935
25501.879559270517
-86699.41869300911
-136423.35296352583
16563.02507598784
-108361.82370820668
-48449.08928571428
61182.599544072946
-50998.77925531915
-82864.92401215805
87954.344224924
68831.66945288754
-43344.729483282674
38245.349544072946
-28056.549392097262
65017.09422492401
-152986.3780395137
-65032.03381458966
-21677.34460486322
-3824.5349544072947
-9.959726443768997
-22952.189589665653
-11473.604863221884
127479.51861702127
141502.813449848
-17847.82978723404
54818.334346504555
11468.625
6374.224924012158
-138958.10334346505
-109641.648556231
-159355.62310030396
-29316.45478723404
39520.19452887538
141502.813449848
14028.274696048631
-94338.52887537994
-127489.47834346505
-2549.689969604863
-63737.26937689969
17847.82978723404
-25496.899696048633
158090.7378419453
-29321.434650455925
50998.77925531915
22962.149316109422
-70111.49430091186
-26771.74468085106
61207.49886018237
161920.25265957447
-163175.17819148937
128769.30319148935
67586.7036474164
-136398.4536474164
35705.61930091185
124954.72796352583
156820.87272036474
62472.38411854103
49733.89399696048
95628.31344984802
-146607.17325227964
160635.44794832825
-56083.21960486322
11478.584726443769
79040.38905775076
128764.32332826748
-21677.34460486322
-75225.81382978724
127484.49848024316
80315.23404255319
-122395.0782674772
123654.98366261397
17847.82978723404
-110921.47340425532
-6384.184650455927
8923.91489361702
-39530.15425531915
-45909.35904255319
-113466.1835106383
1274.8449848024316
-72681.10372340425
89234.16907294832
22952.189589665653
-45904.37917933131
137673.29863221885
146607.17325227964
103257.46390577508
3814.575227963526
-75220.83396656535
45894.41945288754
-39530.15425531915
89234.16907294832
133858.72340425532
103257.46390577508
-26781.70440729483
141507.7933130699
163175.17819148937
10188.800151975684
-105817.1136018237
110911.51367781154
-5114.31952887538
-119845.38829787234
-43344.729483282674
-147891.97796352583
-102002.53837386018
124934.8085106383
-99442.88867781154
11463.645136778116
-59922.69414893617
68841.6291793313
105802.17401215805
-16582.944528875378
6374.224924012158
-132593.83814589665
-21682.324468085106
-57368.02431610942
-36980.46428571428
145317.38867781154
140227.9684650456
-73945.98898176292
132573.91869300912
52263.66451367781
15298.139817629179
-151716.5129179331
149146.90349544073
155531.08814589665
-128764.32332826748
21662.405015197568
45894.41945288754
-142782.63829787233
-79050.34878419453
151701.57332826746
44624.55433130699
49718.954407294834
101982.61892097264
114741.02849544073
-98163.06382978724
-40804.99924012158
135133.56838905773
71391.31914893616
-81605.01861702127
-42079.84422492401
-101987.59878419453
-118570.54331306991
144047.523556231
17847.82978723404
-75225.81382978724
-49733.89399696048
109631.68882978724
-36975.4844224924
-121120.23328267477
31866.144756838905
93063.68389057751
-45904.37917933131
-131318.99316109423
50993.799392097266
108351.86398176292
-142797.57788753798
-36960.544832826745
-98128.20478723403
33195.76823708206
35760.39779635258
-1235.0060790273556
57363.04445288754
-124954.72796352583
149146.90349544073
161895.35334346505
-24232.01443768997
133858.72340425532
-132583.87841945287
94333.54901215805
40790.05965045592
123659.96352583586
-107091.95858662613
7644.090045592705
34425.79445288754
56093.17933130699
-161915.27279635257
161905.31306990882
-79040.38905775076
-110921.47340425532
-63747.22910334346
22952.189589665653
141502.813449848
159350.64323708205
22952.189589665653
38245.349544072946
126199.69376899695
96888.2188449848
127489.47834346505
160625.4882218845
95613.37386018237
-66286.95934650456
81590.07902735562
-50998.77925531915
-57363.04445288754
-33145.96960486322
31866.144756838905
80320.21390577508
38255.309270516715
-15303.119680851063
-67566.78419452887
-62457.44452887538
-58642.86930091185
16572.98480243161
77775.5037993921
-71386.33928571428
-113461.2036474164
12758.409574468085
-142772.67857142855
126214.63335866261
-110901.55395136778
-28031.65007598784
116020.85334346505
81600.0387537994
44639.49392097264
87979.24354103343
-89234.16907294832
-123645.02393617021
-5084.440349544073
-160625.4882218845
-104532.30889057751
-77755.58434650456
70121.45402735562
-40795.03951367781
2559.649696048632
-141507.7933130699
90509.01405775076
-133858.72340425532
-118560.58358662613
-122395.0782674772
89234.16907294832
-93063.68389057751
44614.59460486322
-59927.67401215805
19122.674772036473
117280.75873860181
147872.05851063828
56088.199468085106
-159360.60296352583
152971.438449848
-63752.20896656535
24222.0547112462
85409.63411854103
-44629.534194528875
22947.20972644377
163175.17819148937
-132593.83814589665
-7654.049772036474
59917.71428571428
50983.83966565349
-95623.33358662613
-123659.96352583586
76485.719224924
1264.8852583586627
17847.82978723404
3824.5349544072947
-1289.784574468085
-48449.08928571428
-73941.00911854103
56083.21960486322
-20407.479483282674
-161905.31306990882
-68851.58890577508
142772.67857142855
-75220.83396656535
140227.9684650456
-145342.28799392097
161900.33320668692
5099.379939209726
86679.49924012157
-81600.0387537994
-76490.69908814589
156795.97340425532
-1289.784574468085
117285.7386018237
-17857.78951367781
34410.85486322188
72666.1641337386
73941.00911854103
59907.754559270514
-54828.29407294832
101987.59878419453
-151716.5129179331
-147896.9578267477
-71396.29901215805
10198.759878419452
-70131.4137537994
-85424.57370820668
-140232.94832826746
65012.11436170212
-20402.49962006079
-20397.519756838905
95608.39399696048
-154261.2230243161
38250.329407294834
91788.83890577508
-51003.759118541035
47169.26443768997
-15303.119680851063
107072.0391337386
25486.93996960486
68841.6291793313
-6384.184650455927
123650.00379939209
89239.14893617021
68836.64931610943
44604.63487841945
48439.129559270514
-100717.73366261397
-94353.46846504559
-26781.70440729483
116010.89361702127
137673.29863221885
-58657.80889057751
77760.56420972644
142772.67857142855
77750.60448328267
-98163.06382978724
71416.21846504559
141542.65235562308
146661.95174772036
-6324.426291793313
-63737.26937689969
152961.47872340426
-47184.20402735562
145322.36854103341
155521.12841945287
-31876.104483282674
25496.899696048633
147872.05851063828
104532.30889057751
75215.85410334346
30586.31990881459
61182.599544072946
155531.08814589665
-59922.69414893617
-154266.20288753798
-127484.49848024316
-34420.81458966565
-109646.62841945289
144052.50341945287
-152981.39817629178
118555.60372340425
-47179.22416413374
-150431.70820668692
-109636.66869300911
-77775.5037993921
28046.589665653493
43349.709346504555
11468.625
-15303.119680851063
10203.739741641337
-99447.86854103343
84134.7891337386
119840.40843465045
-3829.514817629179
22942.229863221884
-75215.85410334346
44624.55433130699
40795.03951367781
7654.049772036474
-56088.199468085106
61192.559270516715
-42074.86436170212
-118555.60372340425
147886.99810030396
56093.17933130699
-12743.46998480243
86699.41869300911
99437.90881458967
112196.31838905775
-73926.06952887538
-65012.11436170212
-108356.8438449848
123674.90311550151
-72656.20440729483
-122380.13867781154
130049.12803951367
133873.66299392097
-156800.9532674772
140242.90805471124
-118550.62386018237
-84139.76899696048
-135133.56838905773
-73936.02925531914
-127484.49848024316
70111.49430091186
39520.19452887538
101987.59878419453
159345.66337386018
68836.64931610943
-101987.59878419453
147872.05851063828
105802.17401215805
94338.52887537994
150421.74848024314
14008.355243161093
14023.294832826747
67566.78419452887
-25511.839285714286
-36980.46428571428
8923.91489361702
146597.21352583586
-14.939589665653495
85414.61398176292
-103267.42363221884
-86704.398556231
151701.57332826746
-24227.034574468085
35685.69984802431
24217.074848024316
124929.8286474164
71381.3594224924
-159365.5828267477
-43349.709346504555
156800.9532674772
-150446.64779635257
-2559.649696048632
-39525.174392097266
-127494.45820668692
127479.51861702127
-43349.709346504555
-140242.90805471124
90504.03419452887
6374.224924012158
84134.7891337386
58627.9297112462
90509.01405775076
43344.729483282674
19112.715045592704
-93073.64361702127
-75220.83396656535
160620.5083586626
-12763.38943768997
30591.299772036473
-42079.84422492401
-57382.963905775076
117280.75873860181
14023.294832826747
5089.420212765957
-3839.474544072948
72661.18427051671
-116020.85334346505
-21687.30433130699
75210.87424012157
-57373.00417933131
-145342.28799392097
119830.44870820668
-108366.80357142857
57358.06458966565
-4.979863221884498
43349.709346504555
81585.09916413373
52263.66451367781
-93063.68389057751
-112191.33852583586
-72681.10372340425
-95618.35372340425
-122385.11854103343
6364.265197568388
154246.28343465045
-24227.034574468085
-93078.62348024316
-66306.8787993921
-76495.67895136778
-35705.61930091185
3814.575227963526
156800.9532674772
-146612.1531155015
135118.62879939209
-25511.839285714286
-93068.66375379938
-99447.86854103343
43334.769756838905
12748.449848024316
-82874.88373860181
-128784.24278115502
-141517.7530395137
-1259.905395136778
16607.8438449848
23001.988221884498
-109576.9103343465
47194.16375379939
26756.805091185408
-31886.064209726443
67556.8244680851
33131.03001519757
84139.76899696048
-136408.41337386018
-152991.35790273556
66286.95934650456
76490.69908814589
141502.813449848
-87979.24354103343
75205.8943768997
-44624.55433130699
-6384.184650455927
-30601.25949848024
-128759.34346504559
-158090.7378419453
57363.04445288754
-2554.6698328267476
89229.18920972644
-142792.5980243161
-26771.74468085106
85414.61398176292
-151716.5129179331
130034.18844984802
-50993.799392097266
-35710.59916413374
-16582.944528875378
90518.97378419453
107081.99886018237
-19132.63449848024
101992.5786474164
126209.65349544073
152971.438449848
-31876.104483282674
61197.5391337386
-80320.21390577508
-77770.52393617021
-12743.46998480243
-71391.31914893616
-112191.33852583586
-15293.159954407294
-72661.18427051671
62467.40425531915
-96883.23898176292
147891.97796352583
-73941.00911854103
-144052.50341945287
105827.07332826748
65027.05395136778
-77765.54407294832
-77760.56420972644
-71381.3594224924
42079.84422492401
40809.97910334347
73960.92857142857
14033.254559270516
-66286.95934650456
91803.77849544073
-20397.519756838905
-114741.02849544073
-31866.144756838905
-3824.5349544072947
-68851.58890577508
132583.87841945287
-149156.8632218845
43334.769756838905
-135143.5281155015
-6379.204787234043
-89249.10866261397
135123.608662614
-160630.46808510637
127479.51861702127
158065.83852583586
132578.898556231
140227.9684650456
-150446.64779635257
15293.159954407294
107086.97872340425
163170.19832826746
105802.17401215805
-130039.16831306991
-86699.41869300911
-72681.10372340425
17842.849924012156
159350.64323708205
133848.76367781154
-87974.26367781154
-90518.97378419453
20392.53989361702
89229.18920972644
150426.72834346505
124929.8286474164
-76505.63867781154
71386.33928571428
81590.07902735562
117275.77887537994
-132593.83814589665
-145337.3081306991
-135143.5281155015
-158090.7378419453
-98168.04369300911
-82874.88373860181
-135148.50797872338
145327.34840425532
-43349.709346504555
-44634.514057750755
-90523.9536474164
-7654.049772036474
127474.53875379938
14013.335106382978
-59922.69414893617
138953.12348024314
-138973.0429331307
95608.39399696048
-26776.724544072946
-15318.059270516716
118550.62386018237
-136408.41337386018
-36985.44414893617
-71406.25873860183
118560.58358662613
141502.813449848
-14.939589665653495
-11483.564589665653
7644.090045592705
-116025.83320668692
10193.780015197568
-89239.14893617021
28041.60980243161
-126219.61322188449
-22947.20972644377
146607.17325227964
132573.91869300912
-14028.274696048631
154256.24316109423
122375.15881458965
22942.229863221884
-119835.42857142857
135123.608662614
19107.73518237082
-145337.3081306991
-10208.719604863221
101972.65919452887
150426.72834346505
29321.434650455925
-104552.22834346505
86679.49924012157
43344.729483282674
126199.69376899695
-133873.66299392097
128754.3636018237
34415.83472644377
161890.37348024314
-96898.17857142857
-110921.47340425532
117270.79901215805
-5094.400075987842
94378.36778115502
-99388.11018237082
117345.49696048631
-7609.231003039514
-94343.50873860181
-140252.86778115502
63737.26937689969
-75220.83396656535
114726.08890577508
145327.34840425532
94338.52887537994
39510.23480243161
107077.01899696048
91788.83890577508
152976.4183130699
72656.20440729483
17847.82978723404
-122390.09840425532
-151721.49278115502
53538.50949848024
12753.4297112462
24217.074848024316
99427.94908814589
-118560.58358662613
-160635.44794832825
-107101.91831306991
-96893.19870820668
-2549.689969604863
114731.06876899695
-35705.61930091185
123659.96352583586
156800.9532674772
19117.69490881459
-34420.81458966565
-116015.87348024316
-160640.42781155015
-116010.89361702127
76495.67895136778
-93068.66375379938
24222.0547112462
-20397.519756838905
-147886.99810030396
-118565.56344984802
-103257.46390577508
53548.46922492401
-81595.05889057751
85419.5938449848
114746.00835866261
-116010.89361702127
-20397.519756838905
114746.00835866261
84144.74886018237
159360.60296352583
158095.71770516716
20412.45934650456
-133853.74354103341
28061.529255319147
3844.4544072948324
-72661.18427051671
150441.6679331307
19142.59422492401
-86684.47910334346
-22947.20972644377
15313.079407294832
-35690.6797112462
-29326.41451367781
20402.49962006079
-12753.4297112462
132573.91869300912
-25501.879559270517
-155531.08814589665
30591.299772036473
159345.66337386018
-7654.049772036474
-114741.02849544073
-71406.25873860183
59912.7344224924
21672.364741641337
-108376.76329787234
118550.62386018237
43344.729483282674
142772.67857142855
2539.730243161094
-91793.81876899696
96883.23898176292
-142797.57788753798
-6384.184650455927
52268.64437689969
130019.24886018237
-77780.48366261397
-156805.9331306991
-26781.70440729483
-112201.29825227964
-17852.809650455925
137678.27849544073
-104557.20820668692
-52278.60410334346
-76490.69908814589
-51003.759118541035
-16582.944528875378
73941.00911854103
-155541.04787234042
123645.02393617021
146602.19338905773
-131314.01329787233
-21687.30433130699
29316.45478723404
-70121.45402735562
-112201.29825227964
119825.4688449848
52268.64437689969
160620.5083586626
20387.560030395136
59917.71428571428
77760.56420972644
6359.285334346504
-121120.23328267477
-44624.55433130699
19112.715045592704
-98173.023556231
118560.58358662613
44609.61474164134
-110926.4532674772
-73945.98898176292
19117.69490881459
-17862.769376899694
73936.02925531914
152976.4183130699
48434.14969604863
-52278.60410334346
-87969.28381458967
-150441.6679331307
-150441.6679331307
-90518.97378419453
159350.64323708205
-47179.22416413374
-44624.55433130699
-132583.87841945287
-80325.19376899696
-113466.1835106383
-54818.334346504555
146597.21352583586
-67576.74392097264
-151706.55319148937
158075.79825227964
107077.01899696048
103257.46390577508
-151711.53305471124
-52283.58396656535
-14.939589665653495
-109641.648556231
-95623.33358662613
-63757.18882978723
-144062.46314589665
20392.53989361702
-155546.0277355623
40790.05965045592
130029.20858662613
-110926.4532674772
142772.67857142855
114731.06876899695
-70131.4137537994
-19142.59422492401
-47174.24430091185
-15283.200227963525
-138923.24430091184
122449.85676291793
-33076.251519756835
-87939.40463525835
-24236.994300911854
-73950.9688449848
76480.73936170213
-95628.31344984802
-70116.47416413373
-146612.1531155015
-104552.22834346505
99432.92895136778
-70121.45402735562
107077.01899696048
-133868.6831306991
119835.42857142857
-19132.63449848024
-126219.61322188449
91788.83890577508
15293.159954407294
155521.12841945287
-5104.359802431611
116010.89361702127
-54828.29407294832
136403.43351063828
65022.07408814589
11468.625
-91803.77849544073
52268.64437689969
158080.7781155015
-73950.9688449848
89239.14893617021
-25496.899696048633
-73950.9688449848
-65022.07408814589
-3824.5349544072947
116005.91375379938
156800.9532674772
-119830.44870820668
-95613.37386018237
33140.98974164134
48449.08928571428
-127479.51861702127
-65022.07408814589
-155531.08814589665
24232.01443768997
47174.24430091185
138958.10334346505
44629.534194528875
72676.12386018237
59922.69414893617
-40785.07978723404
53558.42895136778
72671.14399696048
-121100.31382978724
86709.37841945289
156815.89285714284
118570.54331306991
-123645.02393617021
31886.064209726443
-109631.68882978724
136418.37310030396
-118545.64399696048
86694.43882978724
-39520.19452887538
-154246.28343465045
-161905.31306990882
108356.8438449848
-128759.34346504559
-6379.204787234043
-7659.029635258358
-3829.514817629179
151706.55319148937
-135143.5281155015
-140242.90805471124
-6379.204787234043
-82874.88373860181
31861.16489361702
-30601.25949848024
132578.898556231
-150446.64779635257
76485.719224924
-14028.274696048631
-33160.909194528875
-110921.47340425532
36970.504559270514
-84149.72872340425
59907.754559270514
-2554.6698328267476
114731.06876899695
-14.939589665653495
-16577.964665653493
103262.44376899695
137673.29863221885
-123669.92325227962
-149161.84308510637
-51003.759118541035
144047.523556231
-73945.98898176292
-29326.41451367781
-8938.854483282674
39515.2146656535
121110.273556231
-17862.769376899694
82854.96428571428
22947.20972644377
-10208.719604863221
-135143.5281155015
-16577.964665653493
-151711.53305471124
-29336.37424012158
-57377.98404255319
137683.2583586626
43334.769756838905
-138973.0429331307
-22952.189589665653
-49728.9141337386
7639.11018237082
-116015.87348024316
138953.12348024314
50983.83966565349
152976.4183130699
-79045.36892097264
16563.02507598784
-146617.13297872338
-29326.41451367781
-30606.239361702126
45884.45972644377
161900.33320668692
-107096.93844984802
90499.054331307
-161910.2929331307
-25496.899696048633
61182.599544072946
-136418.37310030396
117290.71846504559
47164.28457446808
-40809.97910334347
160630.46808510637
-156805.9331306991
14018.314969604862
43344.729483282674
-63742.24924012158
21667.384878419452
-112196.31838905775
21672.364741641337
-145342.28799392097
63727.30965045592
114731.06876899695
-127489.47834346505
90504.03419452887
-48454.06914893617
142777.65843465045
54808.374620060786
-1289.784574468085
-39525.174392097266
-86699.41869300911
59902.77469604863
136403.43351063828
160625.4882218845
-109651.60828267477
50983.83966565349
33136.00987841945
-19.919452887537993
-11473.604863221884
110951.35258358662
-159300.8446048632
49783.69262917933
-152931.59954407293
44624.55433130699
142762.7188449848
-53553.44908814589
-126214.63335866261
-112201.29825227964
-53553.44908814589
-101987.59878419453
2544.7101063829787
54808.374620060786
-7654.049772036474
-65022.07408814589
21662.405015197568
117280.75873860181
16572.98480243161
-108371.78343465045
-53553.44908814589
-30601.25949848024
57363.04445288754
150421.74848024314
30596.279635258357
33145.96960486322
-22957.169452887538
-138963.08320668692
-45899.39931610942
-65027.05395136778
95608.39399696048
-61192.559270516715
-96893.19870820668
-77775.5037993921
-149156.8632218845
123659.96352583586
-73950.9688449848
-137683.2583586626
-35695.65957446808
-75225.81382978724
45894.41945288754
-160625.4882218845
43344.729483282674
116005.91375379938
-40795.03951367781
103267.42363221884
-126214.63335866261
2554.6698328267476
