0.0
0.0
0.0
0.0
0.0
0.0
0.0
0.0
0.0
0.0
0.0
0.0
0.0
0.0
0.0
0.0
0.0
0.0
0.0
0.0
0.0
0.0
0.0
0.0
0.0
0.0
0.0
0.0
0.0
0.0
0.0
0.0
0.0
0.0
0.0
0.0
0.0
0.0
0.0
0.0
0.0
0.0
0.0
0.0
0.0
0.0
0.0
0.0
0.0
0.0
0.0
0.0
0.0
0.0
0.0
0.0
0.0
0.0
0.0
0.0
0.0
0.0
0.0
0.0
0.0
0.0
0.0
0.0
0.0
0.0
0.0
0.0
0.0
0.0
0.0
0.0
0.0
0.0
0.0
0.0
0.0
0.0
0.0
0.0
0.0
0.0
0.0
0.0
0.0
0.0
0.0
0.0
0.0
0.0
0.0
0.0
0.0
0.0
0.0
0.0
0.0
0.0
0.0
0.0
0.0
0.0
0.0
0.0
0.0
0.0
0.0
0.0
0.0
0.0
0.0
0.0
0.0
0.0
0.0
0.0
0.0
0.0
0.0
0.0
0.0
0.0
0.0
0.0
0.0
0.0
0.0
0.0
0.0
0.0
0.0
0.0
0.0
0.0
0.0
0.0
0.0
0.0
0.0
0.0
0.0
0.0
0.0
0.0
0.0
0.0
0.0
0.0
0.0
0.0
0.0
0.0
0.0
0.0
0.0
0.0
0.0
0.0
0.0
0.0
0.0
0.0
0.0
0.0
0.0
0.0
0.0
0.0
0.0
0.0
0.0
0.0
0.0
0.0
0.0
0.0
0.0
0.0
0.0
0.0
0.0
0.0
0.0
0.0
0.0
0.0
0.0
0.0
0.0
0.0
0.0
0.0
0.0
0.0
0.0
0.0
2126.401595744681
4143.246200607902
5826.439969604863
2778.76367781155
3605.420972644377
5323.473784194529
1882.3882978723404
990.9927811550151
3709.998100303951
2041.7439209726442
-741.9996200607902
1145.3685410334347
652.3620820668692
-2141.341185410334
-328.6709726443769
502.96618541033433
-1693.1534954407293
-1190.187310030395
1100.5497720364742
-229.07370820668692
-2101.502279635258
-49.798632218844986
-298.7917933130699
-2415.233662613982
59.75835866261398
871.4760638297872
-2629.367781155015
-1703.1132218844984
856.5364741641337
-1294.7644376899696
-2440.132978723404
298.7917933130699
572.6842705167173
-1877.4084346504558
-1105.5296352583587
976.0531914893617
-981.0330547112461
-1718.052811550152
851.5566109422492
-901.3552431610942
-1877.4084346504558
1045.7712765957447
318.7112462006079
-2221.018996960486
-741.9996200607902
1075.6504559270516
-2176.200227963526
-2982.9380699088147
806.7378419452887
139.43617021276594
-2221.018996960486
-851.5566109422492
-253.97302431610942
-1648.334726443769
-826.6572948328267
378.4696048632219
-1155.3282674772036
-2460.052431610942
219.11398176291792
308.7515197568389
-2465.0322948328267
-199.19452887537994
687.2211246200608
-1787.770896656535
-1374.4422492401216
507.94604863221883
-746.9794832826748
-1747.931990881459
229.07370820668692
-532.8453647416413
-2589.528875379939
-458.14741641337383
418.30851063829783
-2151.300911854103
-702.1607142857142
1339.58320668693
-901.3552431610942
-766.8989361702128
1264.8852583586627
-478.06686930091183
-1309.704027355623
1937.1667933130698
2315.6363981762916
-1100.5497720364742
-677.2613981762918
1513.8784194528876
-273.8924772036474
-2036.7640577507598
-647.3822188449848
-453.16755319148933
-1777.8111702127658
-124.49658054711246
398.3890577507599
-2285.757218844985
-1588.5763677811549
577.6641337386018
-1414.2811550151976
-2066.6432370820667
821.6774316109422
-308.7515197568389
-3256.8305471124618
-1155.3282674772036
746.9794832826748
-3480.9243920972644
-4143.246200607902
1962.0661094224922
5433.030775075988
10387.994680851063
18664.5273556231
18415.534194528875
7300.479483282675
-986.0129179331307
-1583.5965045592704
-1747.931990881459
-1279.824848024316
288.8320668693009
-727.0600303951368
-876.4559270516717
1035.8115501519756
-483.04673252279633
-1852.5091185410333
-64.73822188449847
313.7313829787234
-697.1808510638298
154.37575987841944
1369.462386018237
-194.21466565349544
-1180.227583586626
1025.8518237082067
761.9190729483282
-1424.2408814589664
527.8655015197568
1309.704027355623
-1449.1401975683889
-458.14741641337383
2230.978723404255
-632.4426291793313
-1384.4019756838904
2529.7705167173253
1180.227583586626
-856.5364741641337
1787.770896656535
2126.401595744681
-712.1204407294832
1125.4490881458967
3147.273556231003
-44.818768996960486
-119.51671732522796
2798.683130699088
1459.099924012158
-448.18768996960483
2425.1933890577507
3520.7632978723404
1419.261018237082
2609.448328267477
4038.669072948328
1782.7910334346504
2151.300911854103
5233.836246200608
4123.326747720364
2335.55585106383
3849.4342705167173
4715.9304711246195
3212.0117781155013
4362.36018237082
5343.393237082067
2808.642857142857
3197.072188449848
4895.205547112462
3535.702887537994
2250.8981762917933
2529.7705167173253
1777.8111702127658
99.59726443768997
1244.9658054711247
1872.4285714285713
-1215.0866261398176
-971.0733282674771
1907.287613981763
224.09384498480242
-2056.683510638298
-766.8989361702128
-14.939589665653495
-1314.6838905775076
-976.0531914893617
174.29521276595744
-1837.5695288753798
-2161.2606382978724
398.3890577507599
-1095.5699088145896
-3017.7971124620058
283.8522036474164
537.8252279635258
-2126.401595744681
-761.9190729483282
69.71808510638297
-1130.428951367781
-1230.026215805471
-522.8856382978723
-338.6306990881459
-1085.6101823708207
-861.5163373860182
-19.919452887537993
-1752.9118541033433
-1140.38867781155
637.4224924012158
-1777.8111702127658
-1334.6033434650456
448.18768996960483
-1618.455547112462
-1892.3480243161093
-114.53685410334346
-338.6306990881459
-2146.3210486322187
-1110.509498480243
607.5433130699088
-1374.4422492401216
-1698.133358662614
323.6911094224924
-433.24810030395133
-2474.9920212765956
-995.9726443768997
647.3822188449848
-2031.7841945288753
-1150.348404255319
1065.6907294832827
-2395.3142097264436
-2479.97188449848
627.4627659574468
-542.8050911854103
-3132.3339665653493
-1728.012537993921
54.77849544072948
-1259.905395136778
-512.9259118541033
502.96618541033433
-1249.945668693009
-1508.8985562310029
174.29521276595744
-891.3955167173252
-1887.368161094225
692.2009878419452
577.6641337386018
-1523.8381458966564
-507.94604863221883
1678.213905775076
323.6911094224924
-1623.4354103343464
1035.8115501519756
906.3351063829787
-2584.5490121580547
-582.6439969604863
542.8050911854103
-1962.0661094224922
-796.7781155015198
493.00645896656533
-1638.375
-2161.2606382978724
388.4293313069909
-861.5163373860182
-2967.998480243161
-931.2344224924012
-373.4897416413374
-2046.723784194529
-1409.301291793313
234.05357142857142
-1294.7644376899696
-2141.341185410334
-587.6238601823708
-2240.938449848024
-2743.9046352583587
5457.93009118541
13131.899316109422
16094.917933130699
16343.911094224923
7484.734422492401
-3485.904255319149
-3575.54179331307
114.53685410334346
-806.7378419452887
-1374.4422492401216
398.3890577507599
393.4091945288754
-2036.7640577507598
-1210.106762917933
1235.0060790273556
-572.6842705167173
-1563.6770516717324
1190.187310030395
682.2412613981762
-1807.690349544073
413.32864741641333
1528.8180091185409
-1359.502659574468
-448.18768996960483
1479.019376899696
-318.7112462006079
-343.6105623100304
1419.261018237082
-308.7515197568389
-791.7982522796352
1757.8917173252278
692.2009878419452
-1160.308130699088
886.4156534954407
2081.5828267477204
239.03343465045592
443.20782674772033
2813.6227203647413
1319.663753799392
-1553.7173252279636
1394.3617021276596
2888.320668693009
-134.45630699088144
1045.7712765957447
3600.4411094224924
1464.0797872340424
572.6842705167173
3744.8571428571427
3386.3069908814587
1693.1534954407293
3724.937689969605
3391.286854103343
1389.381838905775
3525.743161094225
5532.628039513677
3590.481382978723
2863.4213525835867
4785.648556231003
4158.185790273556
2778.76367781155
4969.903495440729
5184.037613981763
2056.683510638298
3027.756838905775
4720.910334346504
1802.7104863221884
627.4627659574468
2171.2203647416413
527.8655015197568
-816.6975683890577
796.7781155015198
921.2746960486322
-1274.8449848024316
-1210.106762917933
896.3753799392097
-627.4627659574468
-1110.509498480243
1010.9122340425531
-741.9996200607902
-2709.045592705167
-9.959726443768997
921.2746960486322
-2101.502279635258
-1235.0060790273556
1065.6907294832827
-1623.4354103343464
-2001.9050151975682
1100.5497720364742
-542.8050911854103
-2021.8244680851062
234.05357142857142
388.4293313069909
-1414.2811550151976
-433.24810030395133
293.8119300911854
-1409.301291793313
-1110.509498480243
522.8856382978723
-189.23480243161094
-1593.5562310030396
-114.53685410334346
99.59726443768997
-2539.730243161094
-1145.3685410334347
1354.5227963525836
-707.1405775075988
-1339.58320668693
119.51671732522796
-1095.5699088145896
-1708.093085106383
194.21466565349544
-224.09384498480242
-1593.5562310030396
-313.7313829787234
244.01329787234042
-1747.931990881459
-1603.5159574468084
861.5163373860182
-896.3753799392097
-2933.1394376899693
-453.16755319148933
463.12727963525833
-1817.6500759878418
-1548.7374620060789
497.98632218844983
-1125.4490881458967
-1648.334726443769
1055.7310030395136
-612.5231762917933
-3142.293693009118
39.838905775075986
363.5300151975684
-2604.4684650455924
-214.13411854103342
1728.012537993921
-806.7378419452887
-941.1941489361702
1115.4893617021276
358.5501519756839
-448.18768996960483
1474.0395136778116
1210.106762917933
-2046.723784194529
-1434.2006079027356
109.55699088145896
-2305.6766717325227
-2046.723784194529
204.17439209726442
-956.1337386018237
-2405.2739361702124
-1055.7310030395136
-478.06686930091183
-2644.3073708206684
-2639.327507598784
-333.6508358662614
-1543.7575987841944
-2300.696808510638
712.1204407294832
-1364.4825227963524
-4108.387158054711
-1259.905395136778
1862.4688449848024
5418.091185410334
11623.00075987842
16792.098784194528
11926.772416413374
572.6842705167173
-3276.75
-2201.0995440729484
-3540.682750759878
-1055.7310030395136
-64.73822188449847
-2943.0991641337387
-239.03343465045592
1399.341565349544
-2221.018996960486
-2280.7773556231
1429.220744680851
288.8320668693009
-1927.207066869301
433.24810030395133
-104.57712765957446
-2450.0927051671733
-323.6911094224924
916.2948328267477
-1180.227583586626
-1693.1534954407293
453.16755319148933
-89.63753799392097
-1927.207066869301
244.01329787234042
851.5566109422492
-1449.1401975683889
-537.8252279635258
1020.8719604863221
-1309.704027355623
-1294.7644376899696
2176.200227963526
652.3620820668692
-1583.5965045592704
662.3218085106382
1518.858282674772
-836.6170212765957
69.71808510638297
2430.173252279635
-54.77849544072948
164.33548632218844
3002.8575227963524
811.7177051671732
-154.37575987841944
2639.327507598784
2898.2803951367778
791.7982522796352
981.0330547112461
3097.4749240121578
1782.7910334346504
866.4962006079027
3859.393996960486
3446.065349544073
2435.1531155015196
4053.608662613982
3655.219604863222
1732.9924012158053
2026.804331306991
3431.125759878419
1837.5695288753798
49.798632218844986
1942.1466565349542
1364.4825227963524
-2076.6029635258355
0.0
308.7515197568389
-3575.54179331307
-1080.6303191489362
1309.704027355623
-1533.7978723404256
-2011.8647416413373
-607.5433130699088
-1523.8381458966564
-2743.9046352583587
-677.2613981762918
-204.17439209726442
-2773.7838145896653
-2076.6029635258355
-886.4156534954407
-2719.005319148936
-2400.294072948328
-204.17439209726442
-1289.784574468085
-3002.8575227963524
-1483.9992401215804
-149.39589665653494
-1942.1466565349542
-1728.012537993921
453.16755319148933
-1598.536094224924
-2295.716945288754
219.11398176291792
-1220.066489361702
-2788.723404255319
-537.8252279635258
-39.838905775075986
-2455.072568389058
-1225.0463525835867
906.3351063829787
-1777.8111702127658
-2460.052431610942
34.859042553191486
-796.7781155015198
-2141.341185410334
-69.71808510638297
263.9327507598784
-3221.97150455927
-2046.723784194529
1379.422112462006
-1623.4354103343464
-2435.1531155015196
946.1740121580547
-722.0801671732522
-2858.441489361702
-308.7515197568389
59.75835866261398
-2514.8309270516716
-1434.2006079027356
368.5098784194529
-1812.6702127659573
-2445.1128419452884
323.6911094224924
-1150.348404255319
-3490.8841185410333
-333.6508358662614
253.97302431610942
-2604.4684650455924
-308.7515197568389
1673.2340425531913
-1180.227583586626
-1439.18047112462
811.7177051671732
-637.4224924012158
-1912.2674772036473
79.67781155015197
-268.9126139817629
-1862.4688449848024
-1429.220744680851
-1130.428951367781
-2873.3810790273556
-2878.36094224924
-981.0330547112461
-2649.287234042553
-2992.8977963525836
-717.1003039513678
-2086.562689969605
-4043.6489361702124
-2664.2268237082067
-756.9392097264438
-2465.0322948328267
-3087.515197568389
-722.0801671732522
-2206.079407294833
-4402.199088145897
-2534.75037993921
-527.8655015197568
2514.8309270516716
10368.075227963525
15691.549012158053
12300.262158054711
4825.487462006079
-1354.5227963525836
-4561.5547112462
-3834.4946808510635
-976.0531914893617
-916.2948328267477
-2803.6629939209724
-1986.965425531915
-214.13411854103342
-2086.562689969605
-2878.36094224924
-84.65767477203647
-846.5767477203647
-2803.6629939209724
-1419.261018237082
-1200.147036474164
-2614.428191489362
-1742.9521276595744
54.77849544072948
-1493.9589665653496
-1897.3278875379938
268.9126139817629
-856.5364741641337
-2967.998480243161
-995.9726443768997
388.4293313069909
-1902.3077507598784
-1045.7712765957447
493.00645896656533
-2096.522416413374
-1962.0661094224922
1369.462386018237
-428.26823708206683
-2250.8981762917933
727.0600303951368
109.55699088145896
-1882.3882978723404
343.6105623100304
1309.704027355623
-1035.8115501519756
-418.30851063829783
1897.3278875379938
89.63753799392097
-781.8385258358662
2216.039133738602
2275.7974924012155
-124.49658054711246
2001.9050151975682
3675.1390577507595
547.7849544072948
801.7579787234042
4063.5683890577507
2365.435030395137
512.9259118541033
3461.004939209726
3007.837386018237
119.51671732522796
2375.394756838906
4297.621960486322
876.4559270516717
-383.4494680851064
2061.663373860182
756.9392097264438
-961.1136018237081
84.65767477203647
-348.5904255319149
-2151.300911854103
-1205.1268996960487
453.16755319148933
-2001.9050151975682
-3226.9513677811547
-512.9259118541033
-1075.6504559270516
-3470.964665653495
-502.96618541033433
268.9126139817629
-2514.8309270516716
-512.9259118541033
-109.55699088145896
-2893.3005319148933
-951.1538753799392
1324.6436170212764
-687.2211246200608
-1588.5763677811549
303.7716565349544
652.3620820668692
-1135.4088145896656
-781.8385258358662
483.04673252279633
-1065.6907294832827
-483.04673252279633
2096.522416413374
-602.5634498480243
-2758.844224924012
512.9259118541033
761.9190729483282
-1892.3480243161093
-343.6105623100304
1040.7914133738602
-1299.744300911854
-1673.2340425531913
273.8924772036474
-1195.1671732522796
-3007.837386018237
-463.12727963525833
-901.3552431610942
-2958.038753799392
-1483.9992401215804
-1125.4490881458967
-2305.6766717325227
-2071.623100303951
-303.7716565349544
-1668.254179331307
-4163.165653495441
-2106.4821428571427
-1110.509498480243
-3426.1458966565347
-2001.9050151975682
-577.6641337386018
-3416.186170212766
-4188.064969604863
-2066.6432370820667
-2181.18009118541
-3849.4342705167173
-2061.663373860182
-1130.428951367781
-3052.6561550151973
-1977.0056990881458
-527.8655015197568
-2191.139817629179
-2455.072568389058
-184.25493920972644
-1474.0395136778116
-2858.441489361702
-194.21466565349544
-622.4829027355623
-3784.6960486322187
-1737.97226443769
273.8924772036474
-3859.393996960486
-3769.7564589665653
-488.02659574468083
-2554.6698328267476
-3565.582066869301
-1394.3617021276596
-1857.4889817629178
-3515.7834346504555
-2061.663373860182
-1115.4893617021276
-3441.0854863221884
-3157.233282674772
-1523.8381458966564
-2674.1865501519756
-3192.0923252279636
-1857.4889817629178
-3097.4749240121578
-4999.782674772036
1688.173632218845
10383.014817629179
13221.536854103342
16035.159574468084
12419.77887537994
363.5300151975684
-4636.2526595744675
-1060.7108662613982
-493.00645896656533
-3281.7298632218844
-1533.7978723404256
597.5835866261398
-2166.240501519757
-2026.804331306991
911.3149696048632
-1583.5965045592704
-4432.078267477204
-1175.2477203647416
139.43617021276594
-2206.079407294833
-1469.0596504559269
-79.67781155015197
-1593.5562310030396
-2016.8446048632218
-194.21466565349544
-1210.106762917933
-2778.76367781155
-687.2211246200608
109.55699088145896
-1673.2340425531913
-941.1941489361702
54.77849544072948
-1713.0729483282673
-966.0934650455927
1090.590045592705
-1379.422112462006
-2674.1865501519756
517.9057750759878
846.5767477203647
-1787.770896656535
288.8320668693009
2225.9988601823707
-2330.5759878419453
-2260.857902735562
2380.37462006079
1643.3548632218844
209.15425531914892
1488.9791033434649
1957.0862462006078
841.5968844984802
1767.851443768997
3480.9243920972644
1513.8784194528876
1299.744300911854
4860.34650455927
3167.193009118541
662.3218085106382
5164.118161094225
5916.077507598784
2141.341185410334
3774.73632218845
5701.94338905775
3092.4950607902733
1832.5896656534953
3909.192629179331
2116.4418693009115
-657.3419452887538
2380.37462006079
2549.689969604863
-781.8385258358662
34.859042553191486
896.3753799392097
-1359.502659574468
-971.0733282674771
597.5835866261398
-74.69794832826747
-607.5433130699088
59.75835866261398
393.4091945288754
-1304.7241641337384
-497.98632218844983
926.2545592705167
-941.1941489361702
-288.8320668693009
1563.6770516717324
29.87917933130699
-811.7177051671732
1155.3282674772036
1533.7978723404256
-234.05357142857142
911.3149696048632
3037.716565349544
1060.7108662613982
184.25493920972644
2265.8377659574467
1598.536094224924
642.4023556231002
1449.1401975683889
1454.1200607902736
921.2746960486322
1220.066489361702
2026.804331306991
662.3218085106382
184.25493920972644
2230.978723404255
1000.9525075987841
-388.4293313069909
1772.8313069908813
1747.931990881459
-1279.824848024316
-59.75835866261398
1723.0326747720364
-478.06686930091183
-453.16755319148933
1454.1200607902736
-154.37575987841944
-2474.9920212765956
184.25493920972644
677.2613981762918
-1698.133358662614
-273.8924772036474
219.11398176291792
-1369.462386018237
-1220.066489361702
283.8522036474164
-811.7177051671732
-2131.3814589665653
-936.2142857142857
-1713.0729483282673
-2255.878039513678
-418.30851063829783
-463.12727963525833
-2250.8981762917933
-1235.0060790273556
846.5767477203647
-1464.0797872340424
-2554.6698328267476
587.6238601823708
293.8119300911854
-2151.300911854103
-1220.066489361702
4.979863221884498
-1419.261018237082
-1807.690349544073
-662.3218085106382
-2624.3879179331307
-3754.8168693009115
-1314.6838905775076
-1842.5493920972644
-4372.319908814589
-2958.038753799392
-522.8856382978723
-2315.6363981762916
-3879.313449848024
-1474.0395136778116
-1454.1200607902736
-3949.031534954407
-1683.1937689969604
-547.7849544072948
-2723.9851823708204
-2275.7974924012155
-1847.529255319149
-2524.7906534954404
1638.375
11697.698708206686
17558.99772036474
15925.602583586626
9561.337386018236
164.33548632218844
-3779.716185410334
-1683.1937689969604
54.77849544072948
-766.8989361702128
-1185.2074468085107
483.04673252279633
-951.1538753799392
-1922.2272036474162
717.1003039513678
423.28837386018233
-2056.683510638298
-662.3218085106382
1454.1200607902736
-1040.7914133738602
-1762.8715805471124
1414.2811550151976
268.9126139817629
-2166.240501519757
438.22796352583583
901.3552431610942
-1962.0661094224922
313.7313829787234
3286.709726443769
741.9996200607902
209.15425531914892
2569.609422492401
1299.744300911854
343.6105623100304
2001.9050151975682
2415.233662613982
1065.6907294832827
2021.8244680851062
3067.595744680851
1683.1937689969604
2489.9316109422493
3510.803571428571
2211.0592705167173
1663.2743161094224
3655.219604863222
4272.7226443769
1942.1466565349542
2773.7838145896653
5238.816109422492
3555.6223404255315
3306.6291793313067
5408.131458966565
3899.232902735562
2903.2602583586627
5169.098024316109
4566.534574468085
3565.582066869301
5617.285714285714
7171.003039513677
4138.266337386018
2096.522416413374
5876.2386018237075
4865.326367781155
1638.375
2798.683130699088
2758.844224924012
114.53685410334346
-293.8119300911854
1508.8985562310029
-642.4023556231002
-2494.911474164134
-49.798632218844986
-1075.6504559270516
-4143.246200607902
-1937.1667933130698
-1329.623480243161
-4173.12537993921
-2918.199848024316
-1548.7374620060789
-3585.5015197568387
-4432.078267477204
-2405.2739361702124
-2420.213525835866
-3879.313449848024
-1195.1671732522796
-712.1204407294832
-3874.3335866261395
-1981.9855623100302
134.45630699088144
-2061.663373860182
-2340.535714285714
179.27507598784194
-413.32864741641333
-3271.7701367781156
-438.22796352583583
1220.066489361702
-2704.0657294832827
-781.8385258358662
1264.8852583586627
-1653.3145896656533
-1110.509498480243
816.6975683890577
-423.28837386018233
-1518.858282674772
453.16755319148933
84.65767477203647
-2360.455167173252
-497.98632218844983
707.1405775075988
-1887.368161094225
-2400.294072948328
-527.8655015197568
-1678.213905775076
-2654.267097264438
-493.00645896656533
-951.1538753799392
-2430.173252279635
-1608.4958206686929
-1080.6303191489362
-1991.9452887537993
-1728.012537993921
293.8119300911854
-677.2613981762918
-2704.0657294832827
-622.4829027355623
1354.5227963525836
-29.87917933130699
1130.428951367781
3714.9779635258355
1882.3882978723404
1643.3548632218844
4925.084726443769
4681.071428571428
3675.1390577507595
5980.815729483283
5926.037234042553
4407.178951367781
6175.030395136778
7370.197568389058
4935.044452887538
4342.440729483283
6588.359042553191
5328.453647416413
3311.6090425531916
3973.93085106383
3670.159194528875
2524.7906534954404
3052.6561550151973
2888.320668693009
986.0129179331307
771.8787993920972
1937.1667933130698
1454.1200607902736
-89.63753799392097
1000.9525075987841
1483.9992401215804
-1867.448708206687
-712.1204407294832
1807.690349544073
-1429.220744680851
-3017.7971124620058
-1523.8381458966564
-448.18768996960483
4073.5281155015196
11742.517477203646
17688.47416413374
16294.112462006078
6936.949468085106
-1474.0395136778116
-5124.279255319148
-3550.642477203647
-443.20782674772033
-1802.7104863221884
-3097.4749240121578
-1757.8917173252278
-2041.7439209726442
-3615.380699088146
-3470.964665653495
-2649.287234042553
-3734.897416413374
-3675.1390577507595
-1742.9521276595744
-2395.3142097264436
-5393.191869300912
-4402.199088145897
-2151.300911854103
-3690.0786474164133
-3137.3138297872338
-2639.327507598784
-4905.165273556231
-4471.917173252279
-2534.75037993921
-3067.595744680851
-4949.984042553191
-3456.025075987842
-2131.3814589665653
-4989.822948328268
-4168.145516717325
-2126.401595744681
-5388.212006079028
-5378.252279635258
-2405.2739361702124
-3919.1523556231
-4765.729103343465
-3112.4145136778116
-3381.327127659574
-4775.688829787234
-3879.313449848024
-2987.917933130699
-4900.185410334347
-4412.158814589666
-1732.9924012158053
-2474.9920212765956
-3924.1322188449844
-1752.9118541033433
-1384.4019756838904
-3067.595744680851
-941.1941489361702
-59.75835866261398
-1792.7507598784193
-1349.542933130699
448.18768996960483
268.9126139817629
-976.0531914893617
219.11398176291792
478.06686930091183
-1170.267857142857
-1319.663753799392
-1025.8518237082067
-2728.965045592705
-2992.8977963525836
-1638.375
-3062.615881458966
-3919.1523556231
-2046.723784194529
-2106.4821428571427
-4556.5748480243155
-4178.105243161094
-2036.7640577507598
-3774.73632218845
-3968.9509878419453
-1852.5091185410333
-3869.353723404255
-3744.8571428571427
-1508.8985562310029
-2001.9050151975682
-3326.548632218845
-2878.36094224924
-1230.026215805471
-2529.7705167173253
-3655.219604863222
-2514.8309270516716
-2843.5018996960484
-3192.0923252279636
-916.2948328267477
-373.4897416413374
-2888.320668693009
-2290.7370820668693
-727.0600303951368
-2071.623100303951
-2390.334346504559
-891.3955167173252
-1404.3214285714284
-2669.206686930091
-1090.590045592705
-1160.308130699088
-3202.0520516717324
-2201.0995440729484
-1578.616641337386
-3296.669452887538
-2758.844224924012
-1060.7108662613982
-2325.596124620061
-3256.8305471124618
-1558.697188449848
-1663.2743161094224
-3490.8841185410333
-2604.4684650455924
-1663.2743161094224
-3331.5284954407293
-4576.494300911854
-2460.052431610942
-2614.428191489362
-5353.352963525836
-3331.5284954407293
-2594.5087386018236
-5089.420212765957
-4974.883358662613
-5268.695288753799
-7464.814969604863
-6941.92933130699
-4815.52773556231
-6065.473404255319
-7519.593465045592
-5995.755319148936
-5846.359422492401
-6922.009878419452
-6404.104103343465
-5557.5273556231
-5766.681610942249
-6787.553571428572
-5970.856003039514
-5104.359802431611
-6697.91603343465
-6319.446428571428
-5691.983662613981
-7843.284574468084
-7449.87537993921
-5761.701747720364
-8231.713905775076
-9038.451747720364
-6857.271656534954
-8087.297872340425
-8874.116261398176
-6648.117401215805
-6184.990121580547
-7997.660334346504
-7056.466185410334
-5174.077887537994
-6677.996580547112
-6448.922872340425
-4611.353343465045
-5403.151595744681
-6120.251899696048
-4790.628419452887
-5298.574468085106
-7335.338525835866
-3027.756838905775
5632.225303951367
10168.880699088146
13824.100303951367
12977.523556231003
1080.6303191489362
-6274.6276595744675
-3520.7632978723404
-2559.649696048632
-4307.581686930091
-3436.105623100304
-682.2412613981762
-1399.341565349544
-2425.1933890577507
-567.7044072948328
-816.6975683890577
-1862.4688449848024
318.7112462006079
697.1808510638298
-896.3753799392097
861.5163373860182
2111.462006079027
293.8119300911854
1115.4893617021276
3799.635638297872
2803.6629939209724
2021.8244680851062
4093.447568389058
4262.762917933131
2913.2199848024316
4795.6082826747715
5766.681610942249
4272.7226443769
5363.312689969604
7713.808130699088
6259.688069908814
4940.024316109422
6951.88905775076
6842.3320668693
6015.674772036474
8281.51253799392
8605.203647416412
5383.232142857142
5881.218465045593
8316.371580547113
6603.298632218844
5308.534194528876
7599.271276595744
7405.056610942249
5303.55433130699
7330.358662613981
8465.767477203646
5527.648176291793
6189.969984802431
8351.230623100304
6613.258358662613
5428.050911854103
7096.30509118541
7868.183890577508
6289.567249240121
5731.822568389058
6389.164513677812
5174.077887537994
4232.883738601823
5482.829407294833
4496.816489361702
2569.609422492401
4272.7226443769
3202.0520516717324
-263.9327507598784
1907.287613981763
2938.1193009118538
-532.8453647416413
-478.06686930091183
1279.824848024316
-517.9057750759878
-1653.3145896656533
328.6709726443769
244.01329787234042
-3226.9513677811547
-2534.75037993921
-463.12727963525833
-2320.616261398176
-1588.5763677811549
44.818768996960486
-1872.4285714285713
-2743.9046352583587
-527.8655015197568
-951.1538753799392
-3391.286854103343
-2111.462006079027
-1095.5699088145896
-2031.7841945288753
-1613.4756838905773
-169.31534954407294
-1264.8852583586627
-2629.367781155015
-507.94604863221883
-1414.2811550151976
-4447.017857142857
-2674.1865501519756
129.47644376899694
-1528.8180091185409
-1892.3480243161093
258.9528875379939
-1543.7575987841944
-2723.9851823708204
-811.7177051671732
-1170.267857142857
-2450.0927051671733
-1015.8920972644377
-114.53685410334346
-1932.1869300911853
-1981.9855623100302
49.798632218844986
-1623.4354103343464
-3231.9312310030396
-966.0934650455927
-786.8183890577508
-2156.2807750759875
-891.3955167173252
368.5098784194529
-1638.375
-2086.562689969605
209.15425531914892
-1205.1268996960487
-2649.287234042553
-303.7716565349544
69.71808510638297
-1952.1063829787233
-1254.9255319148936
692.2009878419452
-1498.938829787234
-2026.804331306991
1239.98594224924
468.10714285714283
-921.2746960486322
1185.2074468085107
1095.5699088145896
-956.1337386018237
637.4224924012158
1787.770896656535
-458.14741641337383
-468.10714285714283
1479.019376899696
717.1003039513678
-2529.7705167173253
-1608.4958206686929
478.06686930091183
-1563.6770516717324
-1264.8852583586627
368.5098784194529
-1613.4756838905773
-3192.0923252279636
-1409.301291793313
-1583.5965045592704
-3296.669452887538
-831.6371580547112
-134.45630699088144
-2783.7435410334347
-1852.5091185410333
-1045.7712765957447
-3944.0516717325227
-4945.004179331307
-1170.267857142857
3341.488221884498
8256.613221884498
16508.24658054711
17638.675531914894
5931.017097264437
-2405.2739361702124
-2913.2199848024316
-3500.843844984802
-2778.76367781155
-488.02659574468083
-2230.978723404255
-3729.9175531914893
-323.6911094224924
-443.20782674772033
-2938.1193009118538
-990.9927811550151
169.31534954407294
-2031.7841945288753
-1732.9924012158053
-164.33548632218844
-1379.422112462006
-1996.9251519756838
129.47644376899694
219.11398176291792
-2151.300911854103
-1225.0463525835867
-94.61740121580547
-1782.7910334346504
-1623.4354103343464
-288.8320668693009
-1055.7310030395136
-1464.0797872340424
1210.106762917933
901.3552431610942
-1718.052811550152
-69.71808510638297
1110.509498480243
-677.2613981762918
-373.4897416413374
1543.7575987841944
144.41603343465044
-995.9726443768997
861.5163373860182
786.8183890577508
34.859042553191486
1673.2340425531913
2743.9046352583587
1608.4958206686929
1150.348404255319
3266.7902735562307
3341.488221884498
2051.7036474164133
4382.279635258358
5313.51405775076
2270.817629179331
3177.1527355623098
5706.923252279635
3580.521656534954
4247.823328267477
6882.170972644377
5184.037613981763
3545.6626139817627
5736.802431610942
5328.453647416413
1558.697188449848
2992.8977963525836
4451.997720364741
1264.8852583586627
1190.187310030395
3032.7367021276596
587.6238601823708
-1100.5497720364742
1125.4490881458967
1085.6101823708207
-1150.348404255319
-248.99316109422492
1130.428951367781
-707.1405775075988
-946.1740121580547
547.7849544072948
-1244.9658054711247
-2365.435030395137
582.6439969604863
751.9593465045592
-1952.1063829787233
-607.5433130699088
273.8924772036474
-1887.368161094225
-1698.133358662614
-9.959726443768997
-438.22796352583583
-1907.287613981763
-209.15425531914892
393.4091945288754
-2211.0592705167173
-737.0197568389058
1015.8920972644377
-1708.093085106383
-2624.3879179331307
-189.23480243161094
-632.4426291793313
-2509.851063829787
-766.8989361702128
39.838905775075986
-2151.300911854103
-836.6170212765957
229.07370820668692
-2714.0254559270516
-1762.8715805471124
547.7849544072948
-1384.4019756838904
-2106.4821428571427
567.7044072948328
-981.0330547112461
-3615.380699088146
-821.6774316109422
517.9057750759878
-2161.2606382978724
-2400.294072948328
44.818768996960486
-856.5364741641337
-2629.367781155015
-273.8924772036474
144.41603343465044
-3067.595744680851
-1269.865121580547
1309.704027355623
-1633.3951367781153
-2390.334346504559
831.6371580547112
174.29521276595744
-1593.5562310030396
741.9996200607902
891.3955167173252
-642.4023556231002
587.6238601823708
1110.509498480243
-632.4426291793313
-328.6709726443769
1279.824848024316
-388.4293313069909
-1593.5562310030396
-244.01329787234042
104.57712765957446
-1389.381838905775
-1075.6504559270516
333.6508358662614
-1210.106762917933
-1508.8985562310029
204.17439209726442
-861.5163373860182
-1952.1063829787233
-253.97302431610942
24.899316109422493
-2131.3814589665653
-1389.381838905775
642.4023556231002
-1708.093085106383
-2928.159574468085
542.8050911854103
3879.313449848024
8176.935410334346
16015.240121580546
18335.856382978724
8351.230623100304
-338.6306990881459
-1100.5497720364742
-3441.0854863221884
-2076.6029635258355
2699.085866261398
258.9528875379939
-1553.7173252279636
1439.18047112462
976.0531914893617
-1264.8852583586627
-199.19452887537994
737.0197568389058
-811.7177051671732
-473.08700607902733
2111.462006079027
776.8586626139818
-1269.865121580547
1673.2340425531913
1688.173632218845
-2370.4148936170213
-164.33548632218844
2355.4753039513676
-383.4494680851064
-84.65767477203647
2250.8981762917933
348.5904255319149
-1414.2811550151976
1419.261018237082
2026.804331306991
-388.4293313069909
1444.1603343465044
2843.5018996960484
-59.75835866261398
139.43617021276594
2599.488601823708
1444.1603343465044
-34.859042553191486
2191.139817629179
2853.4616261398173
229.07370820668692
1324.6436170212764
3451.0452127659573
771.8787993920972
1543.7575987841944
4362.36018237082
2350.495440729483
2778.76367781155
4287.662234042553
2793.7032674772036
2126.401595744681
4212.964285714285
5931.017097264437
3968.9509878419453
3729.9175531914893
5746.762158054711
4451.997720364741
2773.7838145896653
4302.601823708206
4516.73594224924
1673.2340425531913
2355.4753039513676
4257.783054711246
423.28837386018233
-1688.173632218845
2046.723784194529
1728.012537993921
-562.7245440729483
1483.9992401215804
1807.690349544073
-1543.7575987841944
-761.9190729483282
2056.683510638298
-647.3822188449848
-1344.5630699088144
1847.529255319149
-24.899316109422493
-1648.334726443769
1090.590045592705
189.23480243161094
-1299.744300911854
697.1808510638298
1444.1603343465044
-582.6439969604863
-497.98632218844983
1190.187310030395
-119.51671732522796
-1090.590045592705
1892.3480243161093
2016.8446048632218
-2011.8647416413373
-662.3218085106382
1384.4019756838904
-348.5904255319149
-393.4091945288754
1225.0463525835867
-438.22796352583583
-2524.7906534954404
712.1204407294832
1135.4088145896656
-1723.0326747720364
-189.23480243161094
1553.7173252279636
-1553.7173252279636
-1723.0326747720364
1862.4688449848024
-328.6709726443769
-1728.012537993921
557.7446808510638
-542.8050911854103
-1996.9251519756838
-1155.3282674772036
164.33548632218844
-478.06686930091183
-1917.2473404255318
-308.7515197568389
-463.12727963525833
-1967.045972644377
-268.9126139817629
149.39589665653494
-1872.4285714285713
-921.2746960486322
916.2948328267477
-1190.187310030395
-1548.7374620060789
1095.5699088145896
-383.4494680851064
-2016.8446048632218
732.0398936170212
239.03343465045592
-1429.220744680851
1075.6504559270516
1419.261018237082
-1399.341565349544
-1135.4088145896656
677.2613981762918
-841.5968844984802
-2235.9585866261395
-358.5501519756839
204.17439209726442
-2345.5155775075987
-2131.3814589665653
253.97302431610942
-1867.448708206687
-2743.9046352583587
-268.9126139817629
-1359.502659574468
-2504.8712006079027
-253.97302431610942
-408.34878419452883
-2644.3073708206684
-1683.1937689969604
-1503.9186930091184
-1942.1466565349542
4058.588525835866
11682.759118541033
14202.569908814588
13256.395896656535
7245.700987841945
-1628.4152735562309
-5263.715425531915
-2056.683510638298
841.5968844984802
-1180.227583586626
-1573.6367781155016
841.5968844984802
-1558.697188449848
-3580.521656534954
-74.69794832826747
841.5968844984802
-1538.77773556231
-453.16755319148933
1259.905395136778
-891.3955167173252
-966.0934650455927
1090.590045592705
-194.21466565349544
-1618.455547112462
577.6641337386018
214.13411854103342
-2694.106003039514
-483.04673252279633
1573.6367781155016
-612.5231762917933
-2290.7370820668693
224.09384498480242
1354.5227963525836
-1160.308130699088
537.8252279635258
1538.77773556231
-672.2815349544072
617.5030395136778
1807.690349544073
-393.4091945288754
-717.1003039513678
1638.375
1319.663753799392
-647.3822188449848
1220.066489361702
1937.1667933130698
-522.8856382978723
1668.254179331307
3500.843844984802
717.1003039513678
1284.8047112462004
4606.373480243161
2699.085866261398
976.0531914893617
4178.105243161094
3635.3001519756835
1329.623480243161
3052.6561550151973
4621.313069908814
2953.0588905775076
2838.522036474164
4646.212386018236
2604.4684650455924
617.5030395136778
2768.803951367781
2803.6629939209724
-557.7446808510638
597.5835866261398
2484.9517477203644
-552.7648176291793
-2315.6363981762916
-667.3016717325228
-448.18768996960483
-1588.5763677811549
-522.8856382978723
-746.9794832826748
-2549.689969604863
-1150.348404255319
-214.13411854103342
-2509.851063829787
-2106.4821428571427
-308.7515197568389
-1553.7173252279636
-2504.8712006079027
-562.7245440729483
-134.45630699088144
-2669.206686930091
-2440.132978723404
-253.97302431610942
-1264.8852583586627
-1623.4354103343464
-199.19452887537994
-1772.8313069908813
-2644.3073708206684
-224.09384498480242
-229.07370820668692
-2738.924772036474
-1623.4354103343464
89.63753799392097
-1827.609802431611
-2041.7439209726442
54.77849544072948
-1937.1667933130698
-3231.9312310030396
-373.4897416413374
-672.2815349544072
-2594.5087386018236
-1160.308130699088
159.35562310030394
-2614.428191489362
-2609.448328267477
776.8586626139818
-1414.2811550151976
-3306.6291793313067
-388.4293313069909
-333.6508358662614
-2778.76367781155
-1274.8449848024316
-209.15425531914892
-2958.038753799392
-2225.9988601823707
582.6439969604863
-1165.2879939209727
-2773.7838145896653
-507.94604863221883
-453.16755319148933
-3416.186170212766
-1718.052811550152
936.2142857142857
-1628.4152735562309
-1887.368161094225
990.9927811550151
-248.99316109422492
-2465.0322948328267
-468.10714285714283
418.30851063829783
-1573.6367781155016
-662.3218085106382
622.4829027355623
-2131.3814589665653
-3560.6022036474164
-1025.8518237082067
-1085.6101823708207
-2440.132978723404
-786.8183890577508
-1120.469224924012
-3117.394376899696
-2096.522416413374
-941.1941489361702
-2534.75037993921
-2768.803951367781
-961.1136018237081
-1165.2879939209727
-3241.8909574468084
-2863.4213525835867
-2235.9585866261395
-2315.6363981762916
4043.6489361702124
12439.698328267477
15253.321048632219
14461.522796352583
7380.157294832827
-2823.5824468085107
-5029.661854103343
-781.8385258358662
-109.55699088145896
-2021.8244680851062
-1907.287613981763
-1130.428951367781
-861.5163373860182
-1160.308130699088
-74.69794832826747
-906.3351063829787
-2674.1865501519756
-672.2815349544072
313.7313829787234
-1518.858282674772
-1145.3685410334347
-14.939589665653495
-1882.3882978723404
-2031.7841945288753
318.7112462006079
-956.1337386018237
-2445.1128419452884
253.97302431610942
632.4426291793313
-1957.0862462006078
-921.2746960486322
1125.4490881458967
-766.8989361702128
-1409.301291793313
1170.267857142857
-24.899316109422493
-1967.045972644377
707.1405775075988
1035.8115501519756
-1075.6504559270516
159.35562310030394
1384.4019756838904
-224.09384498480242
-313.7313829787234
2146.3210486322187
1170.267857142857
-393.4091945288754
2156.2807750759875
2624.3879179331307
776.8586626139818
2051.7036474164133
3097.4749240121578
1673.2340425531913
2330.5759878419453
4222.924012158054
2963.0186170212764
2315.6363981762916
4491.836626139818
4516.73594224924
1927.207066869301
2445.1128419452884
4322.521276595745
2171.2203647416413
1329.623480243161
2714.0254559270516
1628.4152735562309
-746.9794832826748
49.798632218844986
1145.3685410334347
-1518.858282674772
-1060.7108662613982
657.3419452887538
-1424.2408814589664
-2295.716945288754
-493.00645896656533
-1115.4893617021276
-2340.535714285714
-258.9528875379939
-463.12727963525833
-3216.9916413373858
-2111.462006079027
-806.7378419452887
-3381.327127659574
-2191.139817629179
253.97302431610942
-1887.368161094225
-2679.16641337386
-582.6439969604863
-831.6371580547112
-2913.2199848024316
-1454.1200607902736
159.35562310030394
-1643.3548632218844
-2335.55585106383
-219.11398176291792
-1215.0866261398176
-3097.4749240121578
-981.0330547112461
-1479.019376899696
-3296.669452887538
-1040.7914133738602
587.6238601823708
-2166.240501519757
-3047.676291793313
89.63753799392097
-961.1136018237081
-3172.1728723404253
-727.0600303951368
-796.7781155015198
-3117.394376899696
-1827.609802431611
-194.21466565349544
-2061.663373860182
-2679.16641337386
-597.5835866261398
-1927.207066869301
-2992.8977963525836
-1324.6436170212764
-2320.616261398176
-3441.0854863221884
-946.1740121580547
229.07370820668692
-2479.97188449848
-2235.9585866261395
184.25493920972644
-1857.4889817629178
-2938.1193009118538
-184.25493920972644
-577.6641337386018
-2848.481762917933
-1235.0060790273556
348.5904255319149
-1658.294452887538
-1488.9791033434649
283.8522036474164
-1708.093085106383
-2206.079407294833
1095.5699088145896
781.8385258358662
-2011.8647416413373
-801.7579787234042
184.25493920972644
-2484.9517477203644
-2375.394756838906
-9.959726443768997
-1160.308130699088
-3177.1527355623098
-1195.1671732522796
-383.4494680851064
-3769.7564589665653
-2360.455167173252
906.3351063829787
-2136.36132218845
-3162.2131458966564
-532.8453647416413
-2375.394756838906
-3197.072188449848
-1135.4088145896656
-3037.716565349544
-3446.065349544073
4372.319908814589
11996.490501519756
14874.851443768996
17394.662234042553
11812.23556231003
-846.5767477203647
-4242.843465045593
-831.6371580547112
-552.7648176291793
-1782.7910334346504
-811.7177051671732
732.0398936170212
-1284.8047112462004
-3446.065349544073
-627.4627659574468
-363.5300151975684
-2420.213525835866
4.979863221884498
74.69794832826747
-1713.0729483282673
-517.9057750759878
692.2009878419452
-1543.7575987841944
-2036.7640577507598
831.6371580547112
-662.3218085106382
-2355.4753039513676
224.09384498480242
448.18768996960483
-1787.770896656535
-776.8586626139818
388.4293313069909
-2096.522416413374
-1180.227583586626
1708.093085106383
34.859042553191486
-1479.019376899696
647.3822188449848
1737.97226443769
-388.4293313069909
-219.11398176291792
1483.9992401215804
-154.37575987841944
-194.21466565349544
2529.7705167173253
1319.663753799392
-169.31534954407294
2335.55585106383
2788.723404255319
413.32864741641333
1802.7104863221884
3744.8571428571427
1628.4152735562309
1718.052811550152
5537.607902735562
3575.54179331307
582.6439969604863
4596.413753799392
4999.782674772036
1882.3882978723404
3909.192629179331
5014.72226443769
2081.5828267477204
1922.2272036474162
3172.1728723404253
1902.3077507598784
313.7313829787234
1563.6770516717324
861.5163373860182
-2061.663373860182
-1090.590045592705
-124.49658054711246
-1414.2811550151976
-1996.9251519756838
-403.36892097264433
-756.9392097264438
-2141.341185410334
-229.07370820668692
-348.5904255319149
-2584.5490121580547
-1518.858282674772
79.67781155015197
-2016.8446048632218
-2644.3073708206684
-756.9392097264438
-1638.375
-3236.911094224924
-1374.4422492401216
119.51671732522796
-2335.55585106383
-2001.9050151975682
209.15425531914892
-2320.616261398176
-2788.723404255319
657.3419452887538
-577.6641337386018
-3306.6291793313067
-1040.7914133738602
-44.818768996960486
-2719.005319148936
-1792.7507598784193
537.8252279635258
-1518.858282674772
-3122.3742401215804
-941.1941489361702
-1568.6569148936169
-3077.55547112462
-562.7245440729483
-712.1204407294832
-3764.776595744681
-1847.529255319149
373.4897416413374
-2455.072568389058
-2420.213525835866
244.01329787234042
-1334.6033434650456
-2644.3073708206684
-1110.509498480243
-1728.012537993921
-3112.4145136778116
-1832.5896656534953
-682.2412613981762
-1708.093085106383
-2499.891337386018
-956.1337386018237
-1284.8047112462004
-3236.911094224924
-1005.9323708206687
-298.7917933130699
-2509.851063829787
-1155.3282674772036
-169.31534954407294
-2211.0592705167173
-1847.529255319149
408.34878419452883
-637.4224924012158
-2385.3544832826747
617.5030395136778
363.5300151975684
-3470.964665653495
-443.20782674772033
1314.6838905775076
-1374.4422492401216
-1374.4422492401216
-253.97302431610942
-1558.697188449848
-3600.4411094224924
-1917.2473404255318
-806.7378419452887
-3142.293693009118
-1703.1132218844984
-268.9126139817629
-3117.394376899696
-2539.730243161094
-617.5030395136778
-2245.918313069909
-3037.716565349544
-682.2412613981762
-89.63753799392097
-3724.937689969605
-4108.387158054711
-1055.7310030395136
512.9259118541033
6697.91603343465
16378.770136778116
19077.856003039513
11722.598024316108
1628.4152735562309
-2529.7705167173253
-3575.54179331307
-1772.8313069908813
826.6572948328267
-2036.7640577507598
-2400.294072948328
383.4494680851064
-1100.5497720364742
-2310.656534954407
-119.51671732522796
-94.61740121580547
-2599.488601823708
-1822.6299392097264
627.4627659574468
-1344.5630699088144
-2026.804331306991
891.3955167173252
-164.33548632218844
-1807.690349544073
119.51671732522796
318.7112462006079
-1703.1132218844984
-981.0330547112461
358.5501519756839
-986.0129179331307
-866.4962006079027
1354.5227963525836
398.3890577507599
-1518.858282674772
-34.859042553191486
826.6572948328267
-383.4494680851064
318.7112462006079
1747.931990881459
-199.19452887537994
-677.2613981762918
2519.810790273556
627.4627659574468
-2320.616261398176
1728.012537993921
3341.488221884498
373.4897416413374
1882.3882978723404
4028.709346504559
961.1136018237081
751.9593465045592
4611.353343465045
3590.481382978723
2016.8446048632218
4257.783054711246
4108.387158054711
1747.931990881459
3381.327127659574
5517.688449848024
2619.408054711246
2345.5155775075987
4925.084726443769
3057.6360182370818
1215.0866261398176
1962.0661094224922
1867.448708206687
478.06686930091183
473.08700607902733
1279.824848024316
-263.9327507598784
-1329.623480243161
219.11398176291792
-642.4023556231002
-2066.6432370820667
-891.3955167173252
-796.7781155015198
-2325.596124620061
-1274.8449848024316
-278.8723404255319
-1981.9855623100302
-1334.6033434650456
-2539.730243161094
-3575.54179331307
-1772.8313069908813
-54.77849544072948
298.7917933130699
-2101.502279635258
-1459.099924012158
542.8050911854103
-1469.0596504559269
-2305.6766717325227
-244.01329787234042
-1384.4019756838904
-2494.911474164134
-94.61740121580547
-582.6439969604863
-2599.488601823708
-1852.5091185410333
-667.3016717325228
-1160.308130699088
-2151.300911854103
-896.3753799392097
-1299.744300911854
-3625.3404255319147
-687.2211246200608
951.1538753799392
-2221.018996960486
-1389.381838905775
239.03343465045592
-2066.6432370820667
-2385.3544832826747
258.9528875379939
-1424.2408814589664
-3958.991261398176
-239.03343465045592
84.65767477203647
-3610.4008358662613
-1573.6367781155016
-1140.38867781155
-3241.8909574468084
-1708.093085106383
154.37575987841944
-831.6371580547112
-2390.334346504559
-627.4627659574468
-303.7716565349544
-2479.97188449848
-1533.7978723404256
-144.41603343465044
-1827.609802431611
-2639.327507598784
-99.59726443768997
-741.9996200607902
-3530.7230243161093
258.9528875379939
1583.5965045592704
-2629.367781155015
-761.9190729483282
2026.804331306991
-781.8385258358662
-1618.455547112462
697.1808510638298
-557.7446808510638
-1977.0056990881458
-14.939589665653495
-647.3822188449848
-3007.837386018237
-1643.3548632218844
139.43617021276594
-2026.804331306991
-2938.1193009118538
-398.3890577507599
-1125.4490881458967
-3207.031914893617
-1115.4893617021276
-383.4494680851064
-2833.5421732522796
-1892.3480243161093
592.6037234042553
-2375.394756838906
-3680.118920972644
-1483.9992401215804
-2126.401595744681
1812.6702127659573
10791.363601823708
17359.80319148936
16876.756458966564
9048.411474164133
617.5030395136778
-4337.460866261398
-3147.273556231003
493.00645896656533
-463.12727963525833
-1962.0661094224922
488.02659574468083
-333.6508358662614
-3207.031914893617
-448.18768996960483
1085.6101823708207
-1279.824848024316
-1269.865121580547
692.2009878419452
-94.61740121580547
-1827.609802431611
-512.9259118541033
-44.818768996960486
-1558.697188449848
-408.34878419452883
453.16755319148933
-1200.147036474164
-1299.744300911854
941.1941489361702
333.6508358662614
-2395.3142097264436
572.6842705167173
1907.287613981763
-2235.9585866261395
-378.4696048632219
2544.7101063829787
-14.939589665653495
-507.94604863221883
1732.9924012158053
941.1941489361702
-990.9927811550151
1005.9323708206687
2141.341185410334
-189.23480243161094
468.10714285714283
2972.9783434650453
1643.3548632218844
597.5835866261398
3087.515197568389
3017.7971124620058
926.2545592705167
2719.005319148936
3939.071808510638
1523.8381458966564
2290.7370820668693
4910.145136778116
3480.9243920972644
3296.669452887538
5502.748860182371
4531.675531914893
2848.481762917933
4551.594984802431
4730.870060790274
1658.294452887538
2126.401595744681
4028.709346504559
1294.7644376899696
-642.4023556231002
1374.4422492401216
-9.959726443768997
-1718.052811550152
816.6975683890577
293.8119300911854
-2370.4148936170213
-1439.18047112462
632.4426291793313
-766.8989361702128
-1817.6500759878418
-69.71808510638297
-1190.187310030395
-2873.3810790273556
-423.28837386018233
124.49658054711246
-3291.6895896656533
-1962.0661094224922
926.2545592705167
-2245.918313069909
-3346.4680851063827
219.11398176291792
-229.07370820668692
-2564.6295592705164
-597.5835866261398
39.838905775075986
-1648.334726443769
-881.4357902735562
234.05357142857142
-1927.207066869301
-3112.4145136778116
448.18768996960483
-273.8924772036474
-2793.7032674772036
283.8522036474164
119.51671732522796
-2654.267097264438
-811.7177051671732
617.5030395136778
-2300.696808510638
-2818.602583586626
627.4627659574468
-493.00645896656533
-3062.615881458966
-189.23480243161094
-84.65767477203647
-3685.098784194529
-1284.8047112462004
1110.509498480243
-1414.2811550151976
-2091.5425531914893
-512.9259118541033
-1170.267857142857
-2674.1865501519756
-184.25493920972644
154.37575987841944
-2758.844224924012
-846.5767477203647
1060.7108662613982
-1922.2272036474162
-2704.0657294832827
-199.19452887537994
-542.8050911854103
-2021.8244680851062
-876.4559270516717
-512.9259118541033
-2594.5087386018236
-1718.052811550152
1155.3282674772036
-761.9190729483282
-1235.0060790273556
2629.367781155015
861.5163373860182
-2146.3210486322187
722.0801671732522
1603.5159574468084
-1244.9658054711247
-244.01329787234042
512.9259118541033
-2659.246960486322
-1737.97226443769
746.9794832826748
-1060.7108662613982
-2415.233662613982
-1434.2006079027356
-1483.9992401215804
-2669.206686930091
-1718.052811550152
403.36892097264433
-1050.751139817629
-1897.3278875379938
383.4494680851064
-1354.5227963525836
-3197.072188449848
-990.9927811550151
-1424.2408814589664
-3012.8172492401213
3371.3674012158053
12529.335866261397
15930.58244680851
16194.515197568388
9805.350683890578
-1235.0060790273556
-4476.8970364741635
-512.9259118541033
866.4962006079027
-1683.1937689969604
-1060.7108662613982
1269.865121580547
-1259.905395136778
-2121.4217325227964
926.2545592705167
-373.4897416413374
-2489.9316109422493
263.9327507598784
786.8183890577508
-2823.5824468085107
-1598.536094224924
1568.6569148936169
-1185.2074468085107
-1967.045972644377
1279.824848024316
154.37575987841944
-1359.502659574468
502.96618541033433
662.3218085106382
-801.7579787234042
109.55699088145896
1479.019376899696
-468.10714285714283
-976.0531914893617
1718.052811550152
632.4426291793313
-1259.905395136778
547.7849544072948
891.3955167173252
-602.5634498480243
69.71808510638297
1483.9992401215804
657.3419452887538
746.9794832826748
2748.884498480243
1439.18047112462
373.4897416413374
3331.5284954407293
3077.55547112462
702.1607142857142
2191.139817629179
3929.1120820668693
2430.173252279635
1777.8111702127658
4870.306231003039
4362.36018237082
1588.5763677811549
3570.5619300911853
4591.433890577508
3286.709726443769
4128.306610942249
4959.94376899696
2465.0322948328267
1563.6770516717324
4272.7226443769
2669.206686930091
-338.6306990881459
1942.1466565349542
2255.878039513678
-642.4023556231002
-502.96618541033433
348.5904255319149
-1613.4756838905773
-1827.609802431611
881.4357902735562
-438.22796352583583
-3107.434650455927
-229.07370820668692
761.9190729483282
-2509.851063829787
-1648.334726443769
214.13411854103342
-1573.6367781155016
-2360.455167173252
-896.3753799392097
-1035.8115501519756
-1817.6500759878418
-403.36892097264433
104.57712765957446
-2146.3210486322187
-1404.3214285714284
547.7849544072948
-1399.341565349544
-2071.623100303951
-547.7849544072948
-737.0197568389058
-1996.9251519756838
-1249.945668693009
-423.28837386018233
-2006.884878419453
-1528.8180091185409
239.03343465045592
-1369.462386018237
-2126.401595744681
69.71808510638297
-463.12727963525833
-2285.757218844985
-617.5030395136778
-9.959726443768997
-2230.978723404255
-2270.817629179331
-622.4829027355623
-1807.690349544073
-2425.1933890577507
214.13411854103342
-751.9593465045592
-3231.9312310030396
-1190.187310030395
-229.07370820668692
-2644.3073708206684
-1842.5493920972644
-293.8119300911854
-2176.200227963526
-2300.696808510638
84.65767477203647
-951.1538753799392
-2913.2199848024316
-896.3753799392097
-184.25493920972644
-2489.9316109422493
-1932.1869300911853
-19.919452887537993
-1872.4285714285713
-2285.757218844985
248.99316109422492
-597.5835866261398
-1967.045972644377
348.5904255319149
1185.2074468085107
-1474.0395136778116
-891.3955167173252
1225.0463525835867
-1115.4893617021276
-1827.609802431611
428.26823708206683
-1832.5896656534953
-3510.803571428571
-343.6105623100304
-149.39589665653494
-2893.3005319148933
-1688.173632218845
-453.16755319148933
-2539.730243161094
-2360.455167173252
-746.9794832826748
-2166.240501519757
-3007.837386018237
-1334.6033434650456
-1394.3617021276596
-2997.877659574468
-2275.7974924012155
-1384.4019756838904
-2245.918313069909
2036.7640577507598
10422.853723404254
15960.461626139817
16622.783434650457
10134.021656534955
204.17439209726442
-4999.782674772036
-3216.9916413373858
149.39589665653494
-1493.9589665653496
-2748.884498480243
-49.798632218844986
-627.4627659574468
-2156.2807750759875
84.65767477203647
393.4091945288754
-2310.656534954407
-1952.1063829787233
493.00645896656533
-353.5702887537994
-1668.254179331307
229.07370820668692
-612.5231762917933
-1324.6436170212764
473.08700607902733
-1005.9323708206687
-2554.6698328267476
-622.4829027355623
1464.0797872340424
-323.6911094224924
-1493.9589665653496
995.9726443768997
811.7177051671732
-906.3351063829787
921.2746960486322
756.9392097264438
-1120.469224924012
423.28837386018233
1160.308130699088
-796.7781155015198
-522.8856382978723
2270.817629179331
1439.18047112462
-408.34878419452883
2031.7841945288753
2380.37462006079
94.61740121580547
986.0129179331307
2380.37462006079
1538.77773556231
1613.4756838905773
3570.5619300911853
3351.447948328267
1952.1063829787233
3525.743161094225
4287.662234042553
2330.5759878419453
3017.7971124620058
5119.299392097264
3515.7834346504555
2016.8446048632218
4302.601823708206
3859.393996960486
1742.9521276595744
2918.199848024316
2644.3073708206684
383.4494680851064
941.1941489361702
2001.9050151975682
-214.13411854103342
-1259.905395136778
577.6641337386018
-303.7716565349544
-2305.6766717325227
-597.5835866261398
458.14741641337383
-2380.37462006079
-2564.6295592705164
-34.859042553191486
-1718.052811550152
-2265.8377659574467
-199.19452887537994
-2171.2203647416413
-2818.602583586626
-139.43617021276594
-393.4091945288754
-1857.4889817629178
-926.2545592705167
353.5702887537994
-1220.066489361702
-2041.7439209726442
29.87917933130699
-278.8723404255319
-2629.367781155015
-1185.2074468085107
473.08700607902733
-2235.9585866261395
-1742.9521276595744
164.33548632218844
-2300.696808510638
-2345.5155775075987
54.77849544072948
-1195.1671732522796
-2519.810790273556
119.51671732522796
438.22796352583583
-2235.9585866261395
-1354.5227963525836
114.53685410334346
-2006.884878419453
-2649.287234042553
-338.6306990881459
-682.2412613981762
-2111.462006079027
-926.2545592705167
-478.06686930091183
-2365.435030395137
-2255.878039513678
-54.77849544072948
-1429.220744680851
-2365.435030395137
0.0
-1125.4490881458967
-3465.9848024316107
-662.3218085106382
727.0600303951368
-2704.0657294832827
-2016.8446048632218
1225.0463525835867
-617.5030395136778
-2529.7705167173253
253.97302431610942
607.5433130699088
-1608.4958206686929
448.18768996960483
1110.509498480243
-1508.8985562310029
-756.9392097264438
1389.381838905775
-423.28837386018233
-1882.3882978723404
-263.9327507598784
-1200.147036474164
-3082.5353343465044
-1045.7712765957447
-418.30851063829783
-2783.7435410334347
-1648.334726443769
268.9126139817629
-1688.173632218845
-3137.3138297872338
-612.5231762917933
-587.6238601823708
-3406.226443768997
-856.5364741641337
552.7648176291793
-2848.481762917933
-2350.495440729483
-124.49658054711246
1623.4354103343464
7240.72112462006
15153.723784194528
16772.17933130699
8759.579407294832
-562.7245440729483
-3759.796732522796
-2908.240121580547
-2061.663373860182
-69.71808510638297
174.29521276595744
-1105.5296352583587
363.5300151975684
-134.45630699088144
-2091.5425531914893
159.35562310030394
642.4023556231002
-1942.1466565349542
-268.9126139817629
1658.294452887538
-717.1003039513678
-1568.6569148936169
841.5968844984802
318.7112462006079
-1698.133358662614
358.5501519756839
1319.663753799392
-1772.8313069908813
-916.2948328267477
2076.6029635258355
-278.8723404255319
-2051.7036474164133
901.3552431610942
1498.938829787234
-592.6037234042553
388.4293313069909
1414.2811550151976
-44.818768996960486
502.96618541033433
1996.9251519756838
368.5098784194529
-239.03343465045592
2514.8309270516716
1872.4285714285713
-298.7917933130699
2355.4753039513676
3132.3339665653493
537.8252279635258
1991.9452887537993
2768.803951367781
1180.227583586626
2460.052431610942
4108.387158054711
2763.8240881458964
1508.8985562310029
3610.4008358662613
4113.367021276596
2714.0254559270516
3934.091945288754
5243.795972644377
3630.320288753799
2624.3879179331307
4422.118541033435
3610.4008358662613
1000.9525075987841
2240.938449848024
2524.7906534954404
-308.7515197568389
-288.8320668693009
2166.240501519757
-9.959726443768997
-2479.97188449848
906.3351063829787
-234.05357142857142
-2539.730243161094
891.3955167173252
174.29521276595744
-2574.589285714286
-981.0330547112461
751.9593465045592
-1145.3685410334347
-1792.7507598784193
966.0934650455927
-413.32864741641333
-3152.2534194528876
-448.18768996960483
239.03343465045592
-2818.602583586626
-1439.18047112462
851.5566109422492
-1364.4825227963524
-1304.7241641337384
1235.0060790273556
-413.32864741641333
-2400.294072948328
-483.04673252279633
468.10714285714283
-1409.301291793313
-781.8385258358662
468.10714285714283
-1752.9118541033433
-2191.139817629179
756.9392097264438
114.53685410334346
-1897.3278875379938
-174.29521276595744
-607.5433130699088
-2445.1128419452884
-592.6037234042553
1005.9323708206687
-1220.066489361702
-2071.623100303951
338.6306990881459
-662.3218085106382
-2813.6227203647413
-398.3890577507599
463.12727963525833
-2320.616261398176
-1723.0326747720364
59.75835866261398
-1464.0797872340424
-1464.0797872340424
199.19452887537994
-781.8385258358662
-2260.857902735562
-473.08700607902733
990.9927811550151
-1364.4825227963524
-1170.267857142857
1404.3214285714284
-353.5702887537994
-1862.4688449848024
697.1808510638298
562.7245440729483
-1732.9924012158053
-134.45630699088144
1200.147036474164
-1518.858282674772
-1668.254179331307
532.8453647416413
-1369.462386018237
-2992.8977963525836
-1030.831686930091
-876.4559270516717
-2235.9585866261395
-861.5163373860182
24.899316109422493
-2385.3544832826747
-2614.428191489362
129.47644376899694
-901.3552431610942
-2340.535714285714
-1025.8518237082067
-1598.536094224924
-3097.4749240121578
-363.5300151975684
4830.467325227964
7390.117021276596
12290.302431610942
14879.83130699088
5457.93009118541
-3236.911094224924
-2903.2602583586627
-2056.683510638298
-2465.0322948328267
-931.2344224924012
-134.45630699088144
-2390.334346504559
-1752.9118541033433
1190.187310030395
-483.04673252279633
-1847.529255319149
423.28837386018233
29.87917933130699
-1384.4019756838904
408.34878419452883
532.8453647416413
-1563.6770516717324
-1483.9992401215804
169.31534954407294
-253.97302431610942
-796.7781155015198
1210.106762917933
9.959726443768997
-1723.0326747720364
29.87917933130699
44.818768996960486
-1434.2006079027356
-448.18768996960483
1762.8715805471124
54.77849544072948
-911.3149696048632
1598.536094224924
1105.5296352583587
-737.0197568389058
388.4293313069909
1444.1603343465044
258.9528875379939
219.11398176291792
1095.5699088145896
-174.29521276595744
-24.899316109422493
2903.2602583586627
1359.502659574468
-99.59726443768997
3241.8909574468084
2883.3408054711244
881.4357902735562
2544.7101063829787
4008.789893617021
2519.810790273556
1732.9924012158053
4143.246200607902
4043.6489361702124
1857.4889817629178
3600.4411094224924
4596.413753799392
1493.9589665653496
1902.3077507598784
4188.064969604863
1005.9323708206687
-448.18768996960483
1842.5493920972644
732.0398936170212
-791.7982522796352
438.22796352583583
612.5231762917933
-1264.8852583586627
-1035.8115501519756
388.4293313069909
-1424.2408814589664
-2186.1599544072947
293.8119300911854
-512.9259118541033
-2589.528875379939
-821.6774316109422
-24.899316109422493
-1807.690349544073
-2021.8244680851062
-891.3955167173252
-1294.7644376899696
-1628.4152735562309
393.4091945288754
-453.16755319148933
-2818.602583586626
-497.98632218844983
537.8252279635258
-2225.9988601823707
-2061.663373860182
194.21466565349544
-1244.9658054711247
-1952.1063829787233
363.5300151975684
-1319.663753799392
-2992.8977963525836
333.6508358662614
1000.9525075987841
-2201.0995440729484
-1638.375
428.26823708206683
-1424.2408814589664
-1638.375
702.1607142857142
-378.4696048632219
-2285.757218844985
-278.8723404255319
-438.22796352583583
-3276.75
-1035.8115501519756
557.7446808510638
-2235.9585866261395
-2474.9920212765956
338.6306990881459
-741.9996200607902
-2350.495440729483
-164.33548632218844
-278.8723404255319
-2051.7036474164133
-1030.831686930091
756.9392097264438
-1339.58320668693
-2295.716945288754
59.75835866261398
-552.7648176291793
-2171.2203647416413
104.57712765957446
876.4559270516717
-1842.5493920972644
-582.6439969604863
1902.3077507598784
-542.8050911854103
-966.0934650455927
1503.9186930091184
-194.21466565349544
-2001.9050151975682
-353.5702887537994
393.4091945288754
-1927.207066869301
-2196.1196808510635
4.979863221884498
-1538.77773556231
-3306.6291793313067
-602.5634498480243
-318.7112462006079
-2345.5155775075987
-1005.9323708206687
-791.7982522796352
-2559.649696048632
-662.3218085106382
453.16755319148933
-2763.8240881458964
-2953.0588905775076
2131.3814589665653
6080.412993920972
8102.237462006079
14038.2344224924
14705.536094224923
2753.8643617021276
-4317.5414133738595
-1479.019376899696
-2240.938449848024
-3809.5953647416413
114.53685410334346
403.36892097264433
-1772.8313069908813
139.43617021276594
846.5767477203647
-1897.3278875379938
-1488.9791033434649
896.3753799392097
-990.9927811550151
-1518.858282674772
891.3955167173252
278.8723404255319
-1479.019376899696
-453.16755319148933
129.47644376899694
-1424.2408814589664
-1030.831686930091
1329.623480243161
134.45630699088144
-1678.213905775076
139.43617021276594
124.49658054711246
-1025.8518237082067
936.2142857142857
1180.227583586626
-1105.5296352583587
263.9327507598784
1917.2473404255318
-478.06686930091183
-1180.227583586626
1533.7978723404256
1668.254179331307
-139.43617021276594
1339.58320668693
2026.804331306991
109.55699088145896
722.0801671732522
2719.005319148936
1439.18047112462
562.7245440729483
3685.098784194529
3197.072188449848
936.2142857142857
3500.843844984802
4302.601823708206
2285.757218844985
3192.0923252279636
4631.272796352583
2908.240121580547
2559.649696048632
4890.225683890577
3789.675911854103
1787.770896656535
3132.3339665653493
3690.0786474164133
1543.7575987841944
1215.0866261398176
2101.502279635258
-677.2613981762918
-1678.213905775076
1190.187310030395
801.7579787234042
-1718.052811550152
-189.23480243161094
637.4224924012158
-2181.18009118541
-1693.1534954407293
109.55699088145896
-1185.2074468085107
-1822.6299392097264
144.41603343465044
-627.4627659574468
-2315.6363981762916
-692.2009878419452
-1040.7914133738602
-2300.696808510638
-1185.2074468085107
-174.29521276595744
-1289.784574468085
-2186.1599544072947
-547.7849544072948
-1379.422112462006
-3645.259878419453
-866.4962006079027
702.1607142857142
-2211.0592705167173
-1812.6702127659573
54.77849544072948
-1439.18047112462
-2091.5425531914893
413.32864741641333
-194.21466565349544
-2360.455167173252
-1085.6101823708207
-1000.9525075987841
-2758.844224924012
-1977.0056990881458
184.25493920972644
-1444.1603343465044
-1986.965425531915
667.3016717325228
-1180.227583586626
-3261.810410334346
-567.7044072948328
54.77849544072948
-2390.334346504559
-1882.3882978723404
-278.8723404255319
-1384.4019756838904
-1792.7507598784193
89.63753799392097
-1399.341565349544
-3695.058510638298
-896.3753799392097
-214.13411854103342
-2669.206686930091
-1075.6504559270516
871.4760638297872
-1977.0056990881458
-3072.5756079027356
99.59726443768997
24.899316109422493
-1747.931990881459
89.63753799392097
39.838905775075986
-1673.2340425531913
-348.5904255319149
811.7177051671732
-697.1808510638298
-1488.9791033434649
652.3620820668692
283.8522036474164
-2365.435030395137
-1493.9589665653496
74.69794832826747
-1698.133358662614
-1817.6500759878418
-318.7112462006079
-1942.1466565349542
-2514.8309270516716
-303.7716565349544
-781.8385258358662
-3192.0923252279636
-1369.462386018237
-54.77849544072948
-2923.1797112462004
-2579.56914893617
-169.31534954407294
-2529.7705167173253
-3660.199468085106
776.8586626139818
5263.715425531915
8650.022416413374
14630.838145896656
17095.870440729483
6419.043693009118
-2848.481762917933
-1613.4756838905773
-2186.1599544072947
-3152.2534194528876
9.959726443768997
-348.5904255319149
-1757.8917173252278
-293.8119300911854
-727.0600303951368
-1673.2340425531913
-871.4760638297872
687.2211246200608
-990.9927811550151
-2255.878039513678
263.9327507598784
-129.47644376899694
-1792.7507598784193
-463.12727963525833
393.4091945288754
-1389.381838905775
-1528.8180091185409
-14.939589665653495
-443.20782674772033
-1309.704027355623
-39.838905775075986
527.8655015197568
-1449.1401975683889
-14.939589665653495
1553.7173252279636
-1284.8047112462004
-846.5767477203647
1434.2006079027356
129.47644376899694
-1205.1268996960487
542.8050911854103
1030.831686930091
-527.8655015197568
493.00645896656533
1264.8852583586627
-124.49658054711246
1065.6907294832827
2679.16641337386
368.5098784194529
368.5098784194529
3973.93085106383
3456.025075987842
1005.9323708206687
3436.105623100304
4785.648556231003
1827.609802431611
2340.535714285714
4974.883358662613
3152.2534194528876
2161.2606382978724
4815.52773556231
4143.246200607902
1439.18047112462
2659.246960486322
3485.904255319149
1080.6303191489362
1424.2408814589664
2833.5421732522796
901.3552431610942
-612.5231762917933
1150.348404255319
886.4156534954407
-2435.1531155015196
-1563.6770516717324
488.02659574468083
-1419.261018237082
-1548.7374620060789
592.6037234042553
-990.9927811550151
-3226.9513677811547
-1095.5699088145896
-722.0801671732522
-2415.233662613982
-507.94604863221883
542.8050911854103
-2440.132978723404
-1419.261018237082
652.3620820668692
-2987.917933130699
-3017.7971124620058
358.5501519756839
-727.0600303951368
-2569.609422492401
-507.94604863221883
383.4494680851064
-3077.55547112462
-2265.8377659574467
1095.5699088145896
-1792.7507598784193
-2704.0657294832827
-144.41603343465044
-1015.8920972644377
-1220.066489361702
-204.17439209726442
-692.2009878419452
-2405.2739361702124
-1991.9452887537993
74.69794832826747
-1399.341565349544
-2554.6698328267476
-4.979863221884498
-1055.7310030395136
-4212.964285714285
-607.5433130699088
1055.7310030395136
-2494.911474164134
-1977.0056990881458
483.04673252279633
-1483.9992401215804
-3057.6360182370818
-433.24810030395133
-766.8989361702128
-2828.562310030395
-1025.8518237082067
-134.45630699088144
-2091.5425531914893
-1568.6569148936169
-1374.4422492401216
-2280.7773556231
-1613.4756838905773
54.77849544072948
-244.01329787234042
-2728.965045592705
-612.5231762917933
577.6641337386018
-2798.683130699088
-1718.052811550152
1274.8449848024316
-443.20782674772033
-1384.4019756838904
1319.663753799392
702.1607142857142
-2146.3210486322187
-722.0801671732522
184.25493920972644
-2733.9449088145893
-1932.1869300911853
786.8183890577508
-1558.697188449848
-2704.0657294832827
-751.9593465045592
-2330.5759878419453
-3356.427811550152
-253.97302431610942
-54.77849544072948
-2903.2602583586627
-1777.8111702127658
69.71808510638297
-3027.756838905775
-3177.1527355623098
463.12727963525833
-1558.697188449848
-4611.353343465045
-258.9528875379939
6463.862462006079
9745.592325227963
15437.575987841945
17484.299772036473
5811.50037993921
-3700.038373860182
-1399.341565349544
-966.0934650455927
-2499.891337386018
-94.61740121580547
-547.7849544072948
-2539.730243161094
-1200.147036474164
224.09384498480242
-1857.4889817629178
-2783.7435410334347
-323.6911094224924
-637.4224924012158
-1981.9855623100302
-483.04673252279633
253.97302431610942
-1643.3548632218844
-1513.8784194528876
781.8385258358662
-1145.3685410334347
-3371.3674012158053
-473.08700607902733
179.27507598784194
-1523.8381458966564
-124.49658054711246
756.9392097264438
-1668.254179331307
-1533.7978723404256
1010.9122340425531
-826.6572948328267
-1732.9924012158053
1424.2408814589664
707.1405775075988
-1279.824848024316
433.24810030395133
338.6306990881459
-990.9927811550151
-59.75835866261398
1742.9521276595744
1409.301291793313
174.29521276595744
1454.1200607902736
1937.1667933130698
104.57712765957446
981.0330547112461
2923.1797112462004
1618.455547112462
2076.6029635258355
4521.715805471124
2659.246960486322
1553.7173252279636
4850.386778115501
4207.984422492401
1942.1466565349542
3580.521656534954
4715.9304711246195
2230.978723404255
1239.98594224924
3739.877279635258
2066.6432370820667
-443.20782674772033
1170.267857142857
408.34878419452883
-1797.7306231003038
313.7313829787234
1100.5497720364742
-1907.287613981763
-1344.5630699088144
34.859042553191486
-2161.2606382978724
-2440.132978723404
-239.03343465045592
-702.1607142857142
-2430.173252279635
-1553.7173252279636
-881.4357902735562
-3107.434650455927
-2639.327507598784
-861.5163373860182
-2714.0254559270516
-2599.488601823708
-368.5098784194529
-1165.2879939209727
-3535.702887537994
-1882.3882978723404
278.8723404255319
-2370.4148936170213
-2056.683510638298
-54.77849544072948
-2435.1531155015196
-3162.2131458966564
-79.67781155015197
-602.5634498480243
-3465.9848024316107
-1434.2006079027356
-194.21466565349544
-2798.683130699088
-2071.623100303951
-597.5835866261398
-2699.085866261398
-2415.233662613982
-353.5702887537994
-697.1808510638298
-2524.7906534954404
-2614.428191489362
-1454.1200607902736
-2156.2807750759875
-1912.2674772036473
-861.5163373860182
-2036.7640577507598
-2225.9988601823707
-154.37575987841944
-1479.019376899696
-3709.998100303951
-1384.4019756838904
-522.8856382978723
-2903.2602583586627
-2733.9449088145893
-722.0801671732522
-1379.422112462006
-2415.233662613982
-886.4156534954407
-1708.093085106383
-3406.226443768997
-1235.0060790273556
-298.7917933130699
-2918.199848024316
-2260.857902735562
-995.9726443768997
-3047.676291793313
-2126.401595744681
672.2815349544072
-293.8119300911854
-2250.8981762917933
-368.5098784194529
517.9057750759878
-2300.696808510638
-1464.0797872340424
1075.6504559270516
-941.1941489361702
-1673.2340425531913
-363.5300151975684
-2255.878039513678
-3929.1120820668693
-1603.5159574468084
-722.0801671732522
-3411.2063069908813
-2873.3810790273556
-727.0600303951368
-2908.240121580547
-3874.3335866261395
-1379.422112462006
-1334.6033434650456
-2763.8240881458964
-1538.77773556231
-951.1538753799392
-2828.562310030395
-3067.595744680851
-2101.502279635258
-3376.34726443769
-1349.542933130699
8391.06952887538
14307.147036474164
15666.649696048631
14192.61018237082
3998.830167173252
-4725.890197568388
-3700.038373860182
-642.4023556231002
-1757.8917173252278
-2604.4684650455924
-383.4494680851064
-557.7446808510638
-3212.0117781155013
-1986.965425531915
-99.59726443768997
-1713.0729483282673
-2001.9050151975682
-283.8522036474164
-1175.2477203647416
-2843.5018996960484
-727.0600303951368
-458.14741641337383
-2728.965045592705
-896.3753799392097
-54.77849544072948
-3670.159194528875
-2295.716945288754
1742.9521276595744
-1070.670592705167
-2111.462006079027
886.4156534954407
-956.1337386018237
-2614.428191489362
-343.6105623100304
273.8924772036474
-1757.8917173252278
-1070.670592705167
1170.267857142857
-398.3890577507599
-1917.2473404255318
-39.838905775075986
572.6842705167173
-781.8385258358662
1220.066489361702
1762.8715805471124
-1752.9118541033433
-328.6709726443769
2375.394756838906
129.47644376899694
-338.6306990881459
2763.8240881458964
2982.9380699088147
1090.590045592705
2295.716945288754
3465.9848024316107
1757.8917173252278
2285.757218844985
4362.36018237082
1857.4889817629178
971.0733282674771
4531.675531914893
3142.293693009118
428.26823708206683
2479.97188449848
2972.9783434650453
-179.27507598784194
-562.7245440729483
642.4023556231002
-1080.6303191489362
-1812.6702127659573
-507.94604863221883
-1140.38867781155
-2828.562310030395
-1464.0797872340424
-1284.8047112462004
-3525.743161094225
-3032.7367021276596
-1553.7173252279636
-2629.367781155015
-4183.085106382979
-1444.1603343465044
-1548.7374620060789
-4531.675531914893
-2071.623100303951
-1115.4893617021276
-3714.9779635258355
-2534.75037993921
-861.5163373860182
-2719.005319148936
-3366.387537993921
-1513.8784194528876
-1623.4354103343464
-3739.877279635258
-2196.1196808510635
-1090.590045592705
-4437.058130699088
-3475.94452887538
-1289.784574468085
-3824.5349544072947
-3406.226443768997
-552.7648176291793
-1628.4152735562309
-3665.1793313069907
-2584.5490121580547
-2086.562689969605
-3949.031534954407
-3132.3339665653493
-687.2211246200608
-2778.76367781155
-4496.816489361702
-1902.3077507598784
-2031.7841945288753
-4765.729103343465
-3132.3339665653493
-1419.261018237082
-3864.3738601823707
-3182.132598784194
-1474.0395136778116
-3729.9175531914893
-4088.467705167173
-1847.529255319149
-2285.757218844985
-3958.991261398176
-2694.106003039514
-1832.5896656534953
-3665.1793313069907
-3326.548632218845
-1867.448708206687
-3187.112462006079
-4506.776215805471
-2738.924772036474
-2126.401595744681
-4666.131838905775
-3087.515197568389
-806.7378419452887
-2992.8977963525836
-2514.8309270516716
-886.4156534954407
-2923.1797112462004
-3819.55509118541
-1429.220744680851
-876.4559270516717
-2808.642857142857
-1583.5965045592704
-234.05357142857142
-3276.75
-3341.488221884498
-816.6975683890577
-2893.3005319148933
-4417.13867781155
-2151.300911854103
-2310.656534954407
-4476.8970364741635
-3017.7971124620058
-2335.55585106383
-4775.688829787234
-4377.299772036474
-2933.1394376899693
-3749.837006079027
-3884.2933130699084
-2265.8377659574467
-2221.018996960486
-4750.789513677812
-5343.393237082067
-3107.434650455927
-4526.695668693009
-1090.590045592705
9491.619300911854
13062.181231003038
14835.01253799392
12823.147796352583
174.29521276595744
-6752.69452887538
-3117.394376899696
-1469.0596504559269
-3705.0182370820667
-3381.327127659574
-1359.502659574468
-2878.36094224924
-4133.286474164133
-1394.3617021276596
-1742.9521276595744
-4940.024316109422
-2948.079027355623
-741.9996200607902
-2997.877659574468
-3221.97150455927
-1230.026215805471
-2709.045592705167
-3187.112462006079
-527.8655015197568
-2156.2807750759875
-4212.964285714285
-1459.099924012158
-746.9794832826748
-3555.6223404255315
-2748.884498480243
-438.22796352583583
-2489.9316109422493
-3490.8841185410333
-976.0531914893617
-881.4357902735562
-2604.4684650455924
-1095.5699088145896
-59.75835866261398
-3012.8172492401213
-2196.1196808510635
931.2344224924012
-766.8989361702128
-1986.965425531915
263.9327507598784
39.838905775075986
-2624.3879179331307
-234.05357142857142
2101.502279635258
-283.8522036474164
-39.838905775075986
1389.381838905775
995.9726443768997
458.14741641337383
1528.8180091185409
2325.596124620061
602.5634498480243
1986.965425531915
3724.937689969605
896.3753799392097
662.3218085106382
3615.380699088146
2514.8309270516716
-428.26823708206683
1429.220744680851
1942.1466565349542
-976.0531914893617
-976.0531914893617
-791.7982522796352
-2041.7439209726442
-2111.462006079027
-502.96618541033433
-1996.9251519756838
-5064.520896656535
-1698.133358662614
-502.96618541033433
-4008.789893617021
-2494.911474164134
-1558.697188449848
-4342.440729483283
-3197.072188449848
-1563.6770516717324
-4367.340045592705
-4242.843465045593
-836.6170212765957
-1459.099924012158
-4451.997720364741
-3047.676291793313
-1025.8518237082067
-3326.548632218845
-3416.186170212766
-901.3552431610942
-2430.173252279635
-4183.085106382979
-1832.5896656534953
-1777.8111702127658
-3909.192629179331
-2036.7640577507598
-1150.348404255319
-4088.467705167173
-2694.106003039514
-1060.7108662613982
-3958.991261398176
-3062.615881458966
-488.02659574468083
-2111.462006079027
-3456.025075987842
-1568.6569148936169
-1454.1200607902736
-4222.924012158054
-3137.3138297872338
-672.2815349544072
-2529.7705167173253
-3685.098784194529
-1892.3480243161093
-2091.5425531914893
-3934.091945288754
-2748.884498480243
-846.5767477203647
-2768.803951367781
-4412.158814589666
-1289.784574468085
-990.9927811550151
-3147.273556231003
-936.2142857142857
-1772.8313069908813
-4207.984422492401
-1947.126519756839
-1110.509498480243
-3007.837386018237
-2474.9920212765956
-1130.428951367781
-2320.616261398176
-3012.8172492401213
-1374.4422492401216
-1294.7644376899696
-2460.052431610942
-413.32864741641333
602.5634498480243
-2325.596124620061
-2201.0995440729484
94.61740121580547
-1907.287613981763
-2146.3210486322187
821.6774316109422
-129.47644376899694
-2748.884498480243
-1548.7374620060789
-712.1204407294832
-3739.877279635258
-4053.608662613982
-1230.026215805471
-1488.9791033434649
-2465.0322948328267
-1588.5763677811549
-2589.528875379939
-3809.5953647416413
-1703.1132218844984
-1155.3282674772036
-3904.2127659574467
-2863.4213525835867
-732.0398936170212
-2679.16641337386
-3978.910714285714
-2798.683130699088
-273.8924772036474
4437.058130699088
12265.40311550152
18923.480243161095
14894.770896656535
3809.5953647416413
-1523.8381458966564
-3167.193009118541
-3072.5756079027356
-278.8723404255319
-966.0934650455927
-3127.354103343465
-1772.8313069908813
-637.4224924012158
-2126.401595744681
-1244.9658054711247
378.4696048632219
-2793.7032674772036
-3182.132598784194
134.45630699088144
-338.6306990881459
-1742.9521276595744
-313.7313829787234
981.0330547112461
-1653.3145896656533
-2549.689969604863
273.8924772036474
-373.4897416413374
-2151.300911854103
149.39589665653494
4.979863221884498
-2096.522416413374
69.71808510638297
493.00645896656533
-1732.9924012158053
-766.8989361702128
1518.858282674772
-209.15425531914892
-1752.9118541033433
1065.6907294832827
1005.9323708206687
-1035.8115501519756
607.5433130699088
1897.3278875379938
149.39589665653494
19.919452887537993
2390.334346504559
1319.663753799392
54.77849544072948
2689.126139817629
2868.401215805471
1030.831686930091
2514.8309270516716
4098.427431610942
2136.36132218845
2176.200227963526
4571.51443768997
3480.9243920972644
2634.3476443768996
4073.5281155015196
3585.5015197568387
2026.804331306991
3461.004939209726
4900.185410334347
2350.495440729483
1030.831686930091
2908.240121580547
1603.5159574468084
-1264.8852583586627
826.6572948328267
1324.6436170212764
-1304.7241641337384
-124.49658054711246
781.8385258358662
-1772.8313069908813
-2031.7841945288753
119.51671732522796
-1065.6907294832827
-2499.891337386018
-333.6508358662614
-39.838905775075986
-3690.0786474164133
-2499.891337386018
737.0197568389058
-2410.2537993920973
-2684.1462765957444
926.2545592705167
-1070.670592705167
-3291.6895896656533
-283.8522036474164
89.63753799392097
-2320.616261398176
-971.0733282674771
781.8385258358662
-1070.670592705167
-2524.7906534954404
-413.32864741641333
-353.5702887537994
-2056.683510638298
194.21466565349544
-34.859042553191486
-2494.911474164134
-946.1740121580547
-189.23480243161094
-2245.918313069909
-1807.690349544073
29.87917933130699
-692.2009878419452
-1732.9924012158053
-119.51671732522796
-89.63753799392097
-2987.917933130699
-1259.905395136778
727.0600303951368
-1847.529255319149
-1673.2340425531913
622.4829027355623
-761.9190729483282
-3157.233282674772
-1513.8784194528876
-14.939589665653495
-1703.1132218844984
-697.1808510638298
258.9528875379939
-2544.7101063829787
-2315.6363981762916
507.94604863221883
-268.9126139817629
-1887.368161094225
-497.98632218844983
-453.16755319148933
-2719.005319148936
-2325.596124620061
-104.57712765957446
139.43617021276594
-353.5702887537994
871.4760638297872
-89.63753799392097
-981.0330547112461
1752.9118541033433
956.1337386018237
-1588.5763677811549
119.51671732522796
1483.9992401215804
-617.5030395136778
-1075.6504559270516
-159.35562310030394
-1703.1132218844984
-2245.918313069909
-214.13411854103342
-308.7515197568389
-2166.240501519757
-1434.2006079027356
-473.08700607902733
-1568.6569148936169
-1409.301291793313
388.4293313069909
-692.2009878419452
-2260.857902735562
-139.43617021276594
114.53685410334346
-3012.8172492401213
-2629.367781155015
-423.28837386018233
1498.938829787234
8137.09650455927
16319.0117781155
18261.158434650457
10472.6523556231
1902.3077507598784
-2011.8647416413373
-3854.414133738602
-194.21466565349544
1304.7241641337384
-1653.3145896656533
-732.0398936170212
652.3620820668692
-567.7044072948328
-707.1405775075988
692.2009878419452
682.2412613981762
-806.7378419452887
9.959726443768997
951.1538753799392
-692.2009878419452
-403.36892097264433
1518.858282674772
388.4293313069909
-981.0330547112461
1269.865121580547
1439.18047112462
-1190.187310030395
189.23480243161094
1339.58320668693
-567.7044072948328
-303.7716565349544
1483.9992401215804
677.2613981762918
-184.25493920972644
2549.689969604863
1623.4354103343464
-766.8989361702128
1981.9855623100302
2913.2199848024316
732.0398936170212
1075.6504559270516
2813.6227203647413
1772.8313069908813
916.2948328267477
3296.669452887538
3147.273556231003
-139.43617021276594
2151.300911854103
4277.702507598784
2126.401595744681
3326.548632218845
4227.903875379939
2604.4684650455924
2629.367781155015
5024.681990881459
4636.2526595744675
3077.55547112462
5094.400075987842
4850.386778115501
3346.4680851063827
4576.494300911854
5223.876519756839
3610.4008358662613
2674.1865501519756
3605.420972644377
2838.522036474164
652.3620820668692
1329.623480243161
2524.7906534954404
343.6105623100304
-836.6170212765957
1025.8518237082067
313.7313829787234
-1553.7173252279636
293.8119300911854
448.18768996960483
-1967.045972644377
-697.1808510638298
951.1538753799392
-1583.5965045592704
-1513.8784194528876
1493.9589665653496
-288.8320668693009
-1160.308130699088
697.1808510638298
-846.5767477203647
-2171.2203647416413
-209.15425531914892
1070.670592705167
-926.2545592705167
-911.3149696048632
1618.455547112462
-667.3016717325228
-2689.126139817629
368.5098784194529
627.4627659574468
-1538.77773556231
-169.31534954407294
1329.623480243161
-293.8119300911854
-1284.8047112462004
24.899316109422493
-552.7648176291793
-1847.529255319149
727.0600303951368
751.9593465045592
-1553.7173252279636
-567.7044072948328
363.5300151975684
-1235.0060790273556
-1105.5296352583587
1145.3685410334347
-916.2948328267477
-2056.683510638298
682.2412613981762
378.4696048632219
-1728.012537993921
-263.9327507598784
986.0129179331307
-1927.207066869301
-2415.233662613982
473.08700607902733
-214.13411854103342
-1304.7241641337384
333.6508358662614
-806.7378419452887
-1887.368161094225
199.19452887537994
816.6975683890577
-1130.428951367781
-821.6774316109422
1334.6033434650456
-144.41603343465044
-1479.019376899696
702.1607142857142
876.4559270516717
-478.06686930091183
1737.97226443769
2420.213525835866
-896.3753799392097
-532.8453647416413
1742.9521276595744
-408.34878419452883
-1897.3278875379938
438.22796352583583
149.39589665653494
-2116.4418693009115
-283.8522036474164
169.31534954407294
-2191.139817629179
-1384.4019756838904
478.06686930091183
-841.5968844984802
-2151.300911854103
801.7579787234042
453.16755319148933
-2554.6698328267476
-572.6842705167173
54.77849544072948
-2659.246960486322
-248.99316109422492
7175.982902735562
11075.215805471124
14381.84498480243
15766.246960486322
6239.768617021276
-3122.3742401215804
-2021.8244680851062
537.8252279635258
-2156.2807750759875
-2126.401595744681
2484.9517477203644
483.04673252279633
-2106.4821428571427
1623.4354103343464
1354.5227963525836
-771.8787993920972
841.5968844984802
1125.4490881458967
-781.8385258358662
-4.979863221884498
1862.4688449848024
144.41603343465044
-1225.0463525835867
1354.5227963525836
1802.7104863221884
-941.1941489361702
-114.53685410334346
2186.1599544072947
468.10714285714283
-144.41603343465044
1643.3548632218844
423.28837386018233
-179.27507598784194
2494.911474164134
2171.2203647416413
-248.99316109422492
1862.4688449848024
3142.293693009118
368.5098784194529
921.2746960486322
3391.286854103343
1648.334726443769
89.63753799392097
2250.8981762917933
2868.401215805471
1274.8449848024316
2260.857902735562
3381.327127659574
2250.8981762917933
1822.6299392097264
4098.427431610942
3829.514817629179
1807.690349544073
5034.641717325228
5662.104483282675
2425.1933890577507
4212.964285714285
6209.88943768997
3535.702887537994
3799.635638297872
6424.023556231003
3645.259878419453
1967.045972644377
5129.259118541033
4003.8100303951364
657.3419452887538
2639.327507598784
3520.7632978723404
-443.20782674772033
-547.7849544072948
2315.6363981762916
488.02659574468083
-662.3218085106382
1469.0596504559269
453.16755319148933
-1170.267857142857
537.8252279635258
-154.37575987841944
-2225.9988601823707
-99.59726443768997
1912.2674772036473
-134.45630699088144
-1563.6770516717324
672.2815349544072
488.02659574468083
-1782.7910334346504
-323.6911094224924
1344.5630699088144
-1205.1268996960487
-1075.6504559270516
1583.5965045592704
-393.4091945288754
-1812.6702127659573
682.2412613981762
1225.0463525835867
-786.8183890577508
114.53685410334346
2051.7036474164133
-1080.6303191489362
-3112.4145136778116
308.7515197568389
552.7648176291793
-776.8586626139818
622.4829027355623
692.2009878419452
-737.0197568389058
49.798632218844986
896.3753799392097
-1389.381838905775
-1050.751139817629
1185.2074468085107
-597.5835866261398
-1623.4354103343464
199.19452887537994
-363.5300151975684
-1658.294452887538
-169.31534954407294
537.8252279635258
-1319.663753799392
-926.2545592705167
1225.0463525835867
-59.75835866261398
-1698.133358662614
84.65767477203647
189.23480243161094
-2654.267097264438
-776.8586626139818
1877.4084346504558
-627.4627659574468
-667.3016717325228
1737.97226443769
124.49658054711246
-1085.6101823708207
1314.6838905775076
1479.019376899696
-512.9259118541033
219.11398176291792
1673.2340425531913
124.49658054711246
-502.96618541033433
1623.4354103343464
358.5501519756839
-1862.4688449848024
273.8924772036474
488.02659574468083
-2061.663373860182
-493.00645896656533
1095.5699088145896
-1698.133358662614
-1399.341565349544
1538.77773556231
-816.6975683890577
-2370.4148936170213
248.99316109422492
-746.9794832826748
-2221.018996960486
323.6911094224924
-527.8655015197568
-4322.521276595745
-1882.3882978723404
3495.863981762918
7385.137158054711
12076.168313069908
17479.31990881459
14879.83130699088
2888.320668693009
-2748.884498480243
-1230.026215805471
-2091.5425531914893
-697.1808510638298
1708.093085106383
-348.5904255319149
-2006.884878419453
373.4897416413374
1379.422112462006
-741.9996200607902
-119.51671732522796
1090.590045592705
-268.9126139817629
-124.49658054711246
1339.58320668693
144.41603343465044
-707.1405775075988
1718.052811550152
667.3016717325228
-2096.522416413374
1185.2074468085107
2350.495440729483
-1215.0866261398176
-244.01329787234042
2554.6698328267476
836.6170212765957
-1279.824848024316
1065.6907294832827
2026.804331306991
-229.07370820668692
1354.5227963525836
2833.5421732522796
273.8924772036474
308.7515197568389
2549.689969604863
896.3753799392097
84.65767477203647
3012.8172492401213
3137.3138297872338
1010.9122340425531
1698.133358662614
3316.588905775076
1294.7644376899696
1140.38867781155
4760.74924012158
3934.091945288754
2146.3210486322187
4606.373480243161
4551.594984802431
2280.7773556231
4312.561550151975
4710.950607902735
2913.2199848024316
4661.151975683891
6538.560410334346
4496.816489361702
2479.97188449848
4207.984422492401
4193.044832826748
1902.3077507598784
2191.139817629179
2997.877659574468
1155.3282674772036
219.11398176291792
1887.368161094225
463.12727963525833
-702.1607142857142
1603.5159574468084
756.9392097264438
-1329.623480243161
14.939589665653495
577.6641337386018
-1085.6101823708207
-493.00645896656533
1324.6436170212764
-388.4293313069909
-1981.9855623100302
-99.59726443768997
363.5300151975684
-1220.066489361702
-562.7245440729483
1020.8719604863221
-612.5231762917933
-1244.9658054711247
727.0600303951368
-283.8522036474164
-1125.4490881458967
1025.8518237082067
323.6911094224924
-1314.6838905775076
-378.4696048632219
662.3218085106382
-418.30851063829783
-627.4627659574468
926.2545592705167
19.919452887537993
-1449.1401975683889
179.27507598784194
632.4426291793313
-1787.770896656535
64.73822188449847
1444.1603343465044
-1215.0866261398176
-507.94604863221883
746.9794832826748
-637.4224924012158
-1195.1671732522796
293.8119300911854
537.8252279635258
-1633.3951367781153
-816.6975683890577
737.0197568389058
-1309.704027355623
-756.9392097264438
1279.824848024316
-697.1808510638298
-1195.1671732522796
876.4559270516717
-59.75835866261398
-1842.5493920972644
-14.939589665653495
1344.5630699088144
-826.6572948328267
-737.0197568389058
1444.1603343465044
119.51671732522796
-1404.3214285714284
702.1607142857142
891.3955167173252
-781.8385258358662
1115.4893617021276
2619.408054711246
363.5300151975684
-119.51671732522796
1842.5493920972644
1050.751139817629
-149.39589665653494
851.5566109422492
637.4224924012158
-1772.8313069908813
-1130.428951367781
1354.5227963525836
-592.6037234042553
-1912.2674772036473
84.65767477203647
-841.5968844984802
-1867.448708206687
921.2746960486322
741.9996200607902
-1797.7306231003038
-398.3890577507599
1090.590045592705
-861.5163373860182
-2121.4217325227964
-906.3351063829787
-522.8856382978723
3221.97150455927
11936.732142857143
17529.118541033433
17065.991261398176
10920.840045592704
1907.287613981763
-3097.4749240121578
-1603.5159574468084
1618.455547112462
746.9794832826748
-901.3552431610942
1613.4756838905773
732.0398936170212
-2554.6698328267476
652.3620820668692
2335.55585106383
-866.4962006079027
89.63753799392097
1912.2674772036473
-19.919452887537993
-144.41603343465044
1449.1401975683889
1170.267857142857
-657.3419452887538
313.7313829787234
1613.4756838905773
-577.6641337386018
-229.07370820668692
1942.1466565349542
1000.9525075987841
-318.7112462006079
1912.2674772036473
2151.300911854103
-348.5904255319149
1618.455547112462
2908.240121580547
-224.09384498480242
717.1003039513678
3112.4145136778116
1090.590045592705
527.8655015197568
2674.1865501519756
2355.4753039513676
44.818768996960486
1548.7374620060789
4093.447568389058
2086.562689969605
2086.562689969605
4466.937310030395
2544.7101063829787
2046.723784194529
4895.205547112462
4765.729103343465
2903.2602583586627
4297.621960486322
6219.849164133739
3954.0113981762916
3769.7564589665653
6677.996580547112
4636.2526595744675
2823.5824468085107
5442.990501519756
4865.326367781155
2455.072568389058
3505.8237082066867
4905.165273556231
1882.3882978723404
642.4023556231002
3724.937689969605
1274.8449848024316
-1454.1200607902736
1598.536094224924
1369.462386018237
-781.8385258358662
1230.026215805471
1538.77773556231
-1483.9992401215804
-1498.938829787234
443.20782674772033
-343.6105623100304
-971.0733282674771
1259.905395136778
1294.7644376899696
-1772.8313069908813
-806.7378419452887
1379.422112462006
-1070.670592705167
-1045.7712765957447
1359.502659574468
-278.8723404255319
-1777.8111702127658
1125.4490881458967
1558.697188449848
-1503.9186930091184
-169.31534954407294
1329.623480243161
-1090.590045592705
-637.4224924012158
1464.0797872340424
-662.3218085106382
-2240.938449848024
896.3753799392097
1329.623480243161
-1334.6033434650456
14.939589665653495
1220.066489361702
-1274.8449848024316
-961.1136018237081
1150.348404255319
-313.7313829787234
-1513.8784194528876
-258.9528875379939
313.7313829787234
-1449.1401975683889
-811.7177051671732
981.0330547112461
-1090.590045592705
-1299.744300911854
707.1405775075988
-846.5767477203647
-2046.723784194529
393.4091945288754
408.34878419452883
-1698.133358662614
-64.73822188449847
1239.98594224924
-707.1405775075988
-1374.4422492401216
-9.959726443768997
-552.7648176291793
-1991.9452887537993
253.97302431610942
1235.0060790273556
-1613.4756838905773
-647.3822188449848
1479.019376899696
-373.4897416413374
-338.6306990881459
2031.7841945288753
443.20782674772033
-931.2344224924012
1762.8715805471124
1568.6569148936169
-612.5231762917933
662.3218085106382
1005.9323708206687
-1339.58320668693
-961.1136018237081
408.34878419452883
-1369.462386018237
-2489.9316109422493
-313.7313829787234
139.43617021276594
-1777.8111702127658
-761.9190729483282
522.8856382978723
-1464.0797872340424
-1673.2340425531913
642.4023556231002
-478.06686930091183
-2315.6363981762916
74.69794832826747
-1020.8719604863221
-4108.387158054711
1678.213905775076
10104.142477203646
13380.892477203646
18101.80281155015
17051.051671732523
3465.9848024316107
-3754.8168693009115
-856.5364741641337
338.6306990881459
-1469.0596504559269
-378.4696048632219
1523.8381458966564
-1210.106762917933
-1185.2074468085107
1548.7374620060789
-239.03343465045592
-1618.455547112462
737.0197568389058
428.26823708206683
-1558.697188449848
363.5300151975684
1304.7241641337384
-990.9927811550151
-527.8655015197568
1528.8180091185409
-94.61740121580547
-1359.502659574468
448.18768996960483
433.24810030395133
-921.2746960486322
408.34878419452883
1713.0729483282673
-866.4962006079027
-1050.751139817629
2684.1462765957444
1125.4490881458967
-1723.0326747720364
1658.294452887538
1742.9521276595744
-791.7982522796352
1723.0326747720364
2345.5155775075987
234.05357142857142
995.9726443768997
1817.6500759878418
1055.7310030395136
1508.8985562310029
3087.515197568389
2514.8309270516716
-288.8320668693009
1917.2473404255318
5124.279255319148
3117.394376899696
2992.8977963525836
4840.427051671732
3037.716565349544
2225.9988601823707
4895.205547112462
5109.339665653495
3336.508358662614
4322.521276595745
5203.9570668693
3152.2534194528876
2450.0927051671733
3281.7298632218844
1728.012537993921
727.0600303951368
2280.7773556231
1797.7306231003038
-144.41603343465044
1065.6907294832827
2086.562689969605
-756.9392097264438
-1479.019376899696
497.98632218844983
-44.818768996960486
-1399.341565349544
-1190.187310030395
-1608.4958206686929
-1917.2473404255318
-672.2815349544072
69.71808510638297
-931.2344224924012
-1339.58320668693
438.22796352583583
-308.7515197568389
-2494.911474164134
-637.4224924012158
239.03343465045592
-1942.1466565349542
-537.8252279635258
816.6975683890577
-1713.0729483282673
-1349.542933130699
866.4962006079027
-1493.9589665653496
-3057.6360182370818
179.27507598784194
308.7515197568389
-2470.012158054711
-831.6371580547112
667.3016717325228
-2479.97188449848
-1867.448708206687
846.5767477203647
-737.0197568389058
-1344.5630699088144
288.8320668693009
-229.07370820668692
-2285.757218844985
-1120.469224924012
-273.8924772036474
-2141.341185410334
-1683.1937689969604
318.7112462006079
-1299.744300911854
-3316.588905775076
-298.7917933130699
248.99316109422492
-2225.9988601823707
-617.5030395136778
413.32864741641333
-1962.0661094224922
-1688.173632218845
448.18768996960483
-971.0733282674771
-2225.9988601823707
-1055.7310030395136
-1105.5296352583587
-2225.9988601823707
-1125.4490881458967
209.15425531914892
-1120.469224924012
-1493.9589665653496
-343.6105623100304
-707.1405775075988
-1249.945668693009
901.3552431610942
1040.7914133738602
-1548.7374620060789
368.5098784194529
1777.8111702127658
-1518.858282674772
-1025.8518237082067
1314.6838905775076
-682.2412613981762
-1742.9521276595744
29.87917933130699
-413.32864741641333
-2146.3210486322187
-941.1941489361702
-99.59726443768997
-2614.428191489362
-2554.6698328267476
-263.9327507598784
-582.6439969604863
-1882.3882978723404
-1354.5227963525836
-458.14741641337383
-2275.7974924012155
-1080.6303191489362
746.9794832826748
-2888.320668693009
-3540.682750759878
-54.77849544072948
3371.3674012158053
8679.90159574468
16503.266717325227
19690.379179331307
9735.632598784194
-990.9927811550151
-2026.804331306991
-1927.207066869301
-2166.240501519757
258.9528875379939
-79.67781155015197
-1977.0056990881458
69.71808510638297
373.4897416413374
-1409.301291793313
-129.47644376899694
1155.3282674772036
-981.0330547112461
-1533.7978723404256
921.2746960486322
-682.2412613981762
-2987.917933130699
258.9528875379939
1459.099924012158
-1553.7173252279636
-388.4293313069909
961.1136018237081
-1040.7914133738602
-662.3218085106382
1279.824848024316
791.7982522796352
-323.6911094224924
1035.8115501519756
1175.2477203647416
-856.5364741641337
-44.818768996960486
1528.8180091185409
-627.4627659574468
-303.7716565349544
2599.488601823708
871.4760638297872
-239.03343465045592
2036.7640577507598
1503.9186930091184
-229.07370820668692
1279.824848024316
2748.884498480243
1469.0596504559269
1762.8715805471124
3431.125759878419
2216.039133738602
1703.1132218844984
3590.481382978723
3650.2397416413373
2415.233662613982
3470.964665653495
4178.105243161094
2380.37462006079
3371.3674012158053
6085.392857142857
4252.803191489362
1822.6299392097264
4237.863601823708
4536.655395136778
801.7579787234042
1917.2473404255318
3550.642477203647
662.3218085106382
109.55699088145896
1588.5763677811549
189.23480243161094
-1469.0596504559269
124.49658054711246
154.37575987841944
-2211.0592705167173
-966.0934650455927
234.05357142857142
-2280.7773556231
-2101.502279635258
677.2613981762918
-1095.5699088145896
-2923.1797112462004
-438.22796352583583
-781.8385258358662
-2938.1193009118538
-1165.2879939209727
662.3218085106382
-1235.0060790273556
-2136.36132218845
124.49658054711246
-383.4494680851064
-2798.683130699088
-796.7781155015198
69.71808510638297
-2186.1599544072947
-1185.2074468085107
-159.35562310030394
-1757.8917173252278
-1548.7374620060789
831.6371580547112
-776.8586626139818
-3207.031914893617
-1215.0866261398176
-1125.4490881458967
-1847.529255319149
-54.77849544072948
786.8183890577508
-1314.6838905775076
-2669.206686930091
-866.4962006079027
-473.08700607902733
-2654.267097264438
-1399.341565349544
14.939589665653495
-2574.589285714286
-1508.8985562310029
154.37575987841944
-2006.884878419453
-2649.287234042553
-1015.8920972644377
-1225.0463525835867
-2838.522036474164
-901.3552431610942
99.59726443768997
-2320.616261398176
-1588.5763677811549
9.959726443768997
-1772.8313069908813
-2813.6227203647413
29.87917933130699
-886.4156534954407
-3451.0452127659573
-74.69794832826747
59.75835866261398
-2953.0588905775076
-1419.261018237082
154.37575987841944
-1483.9992401215804
-1429.220744680851
1259.905395136778
-657.3419452887538
-2504.8712006079027
1568.6569148936169
1414.2811550151976
-1742.9521276595744
-632.4426291793313
1060.7108662613982
-672.2815349544072
-2908.240121580547
-1259.905395136778
-921.2746960486322
-2659.246960486322
-846.5767477203647
-54.77849544072948
-2141.341185410334
-1757.8917173252278
-502.96618541033433
-1922.2272036474162
-2738.924772036474
-1065.6907294832827
-1259.905395136778
-2888.320668693009
-856.5364741641337
-1070.670592705167
-4581.474164133739
-2061.663373860182
4103.407294832827
8889.05585106383
15123.844604863221
19242.1914893617
10910.880319148935
-1100.5497720364742
-2564.6295592705164
-826.6572948328267
-1922.2272036474162
-448.18768996960483
1035.8115501519756
-2186.1599544072947
-2499.891337386018
587.6238601823708
-1110.509498480243
-2559.649696048632
288.8320668693009
-179.27507598784194
-2325.596124620061
219.11398176291792
1220.066489361702
-1185.2074468085107
-1130.428951367781
776.8586626139818
423.28837386018233
-1757.8917173252278
-582.6439969604863
851.5566109422492
-1409.301291793313
-841.5968844984802
1329.623480243161
-537.8252279635258
-1020.8719604863221
1553.7173252279636
159.35562310030394
-1394.3617021276596
1424.2408814589664
956.1337386018237
-871.4760638297872
1085.6101823708207
2011.8647416413373
-224.09384498480242
-373.4897416413374
1872.4285714285713
1319.663753799392
453.16755319148933
2489.9316109422493
2465.0322948328267
79.67781155015197
1772.8313069908813
4198.024696048632
2021.8244680851062
1847.529255319149
4621.313069908814
3525.743161094225
1747.931990881459
3675.1390577507595
4148.226063829787
2021.8244680851062
4123.326747720364
5159.13829787234
2768.803951367781
2524.7906534954404
2863.4213525835867
2435.1531155015196
1000.9525075987841
2051.7036474164133
2903.2602583586627
139.43617021276594
19.919452887537993
876.4559270516717
-1190.187310030395
-1822.6299392097264
468.10714285714283
-253.97302431610942
-2136.36132218845
-592.6037234042553
-552.7648176291793
-2499.891337386018
-1703.1132218844984
-398.3890577507599
-2943.0991641337387
-2474.9920212765956
557.7446808510638
-1150.348404255319
-2081.5828267477204
-34.859042553191486
-99.59726443768997
-2201.0995440729484
-1832.5896656534953
149.39589665653494
-1329.623480243161
-2101.502279635258
-303.7716565349544
-881.4357902735562
-2330.5759878419453
-677.2613981762918
239.03343465045592
-2350.495440729483
-1623.4354103343464
383.4494680851064
-2091.5425531914893
-2280.7773556231
378.4696048632219
-1349.542933130699
-2823.5824468085107
-184.25493920972644
293.8119300911854
-2176.200227963526
-1409.301291793313
24.899316109422493
-1996.9251519756838
-1947.126519756839
497.98632218844983
-1374.4422492401216
-3221.97150455927
-856.5364741641337
-403.36892097264433
-2778.76367781155
-1235.0060790273556
497.98632218844983
-2853.4616261398173
-2450.0927051671733
258.9528875379939
-1713.0729483282673
-2669.206686930091
333.6508358662614
189.23480243161094
-2574.589285714286
-1334.6033434650456
338.6306990881459
-1708.093085106383
-1723.0326747720364
637.4224924012158
-771.8787993920972
-2310.656534954407
74.69794832826747
1035.8115501519756
-1464.0797872340424
-1035.8115501519756
1493.9589665653496
-318.7112462006079
-1668.254179331307
552.7648176291793
29.87917933130699
-2240.938449848024
-1120.469224924012
-413.32864741641333
-2460.052431610942
-1668.254179331307
144.41603343465044
-1867.448708206687
-2484.9517477203644
-268.9126139817629
-1180.227583586626
-2529.7705167173253
-522.8856382978723
-607.5433130699088
-2699.085866261398
-1225.0463525835867
29.87917933130699
-3426.1458966565347
-4700.990881458966
-1289.784574468085
1538.77773556231
6732.775075987842
15562.072568389058
19097.77545592705
11219.631838905774
1374.4422492401216
-1618.455547112462
-3087.515197568389
-2489.9316109422493
851.5566109422492
-194.21466565349544
-2315.6363981762916
-204.17439209726442
951.1538753799392
-2211.0592705167173
-2285.757218844985
1105.5296352583587
149.39589665653494
-1389.381838905775
253.97302431610942
-602.5634498480243
-2808.642857142857
-89.63753799392097
1259.905395136778
-1279.824848024316
-94.61740121580547
1230.026215805471
-781.8385258358662
-727.0600303951368
1205.1268996960487
214.13411854103342
-1235.0060790273556
24.899316109422493
732.0398936170212
-433.24810030395133
652.3620820668692
2435.1531155015196
154.37575987841944
-727.0600303951368
1329.623480243161
906.3351063829787
-502.96618541033433
1264.8852583586627
2300.696808510638
69.71808510638297
1175.2477203647416
3167.193009118541
1160.308130699088
1474.0395136778116
3914.1724924012155
2275.7974924012155
1170.267857142857
4063.5683890577507
4456.977583586626
1912.2674772036473
3052.6561550151973
5363.312689969604
3291.6895896656533
2689.126139817629
5587.406534954407
4437.058130699088
1518.858282674772
4018.74962006079
4198.024696048632
702.1607142857142
1902.3077507598784
3605.420972644377
1319.663753799392
308.7515197568389
1777.8111702127658
-89.63753799392097
-1573.6367781155016
497.98632218844983
313.7313829787234
-1757.8917173252278
-796.7781155015198
69.71808510638297
-1713.0729483282673
-1304.7241641337384
34.859042553191486
-1434.2006079027356
-2733.9449088145893
-448.18768996960483
4.979863221884498
-2838.522036474164
-931.2344224924012
1364.4825227963524
-1459.099924012158
-2016.8446048632218
572.6842705167173
-876.4559270516717
-2539.730243161094
-298.7917933130699
179.27507598784194
-1434.2006079027356
-931.2344224924012
522.8856382978723
-876.4559270516717
-1384.4019756838904
552.7648176291793
-642.4023556231002
-2514.8309270516716
-418.30851063829783
433.24810030395133
-2574.589285714286
-1747.931990881459
1105.5296352583587
-1857.4889817629178
-2953.0588905775076
488.02659574468083
-393.4091945288754
-2509.851063829787
-239.03343465045592
268.9126139817629
-2141.341185410334
-1344.5630699088144
24.899316109422493
-1797.7306231003038
-1364.4825227963524
1050.751139817629
-1424.2408814589664
-3261.810410334346
-732.0398936170212
-293.8119300911854
-2036.7640577507598
-1075.6504559270516
59.75835866261398
-1872.4285714285713
-1972.0258358662613
607.5433130699088
-507.94604863221883
-2470.012158054711
179.27507598784194
717.1003039513678
-1588.5763677811549
-687.2211246200608
1449.1401975683889
194.21466565349544
-881.4357902735562
1723.0326747720364
891.3955167173252
-1439.18047112462
527.8655015197568
278.8723404255319
-2873.3810790273556
-1444.1603343465044
876.4559270516717
-1742.9521276595744
-1991.9452887537993
69.71808510638297
-1573.6367781155016
-2748.884498480243
-851.5566109422492
-149.39589665653494
-1752.9118541033433
-1155.3282674772036
363.5300151975684
-1459.099924012158
-1792.7507598784193
199.19452887537994
-2131.3814589665653
-3112.4145136778116
3680.118920972644
9815.310410334347
12877.926291793312
16712.420972644377
11468.625
-1055.7310030395136
-4317.5414133738595
-1972.0258358662613
-1922.2272036474162
-1374.4422492401216
522.8856382978723
756.9392097264438
-911.3149696048632
-1120.469224924012
483.04673252279633
-423.28837386018233
-1249.945668693009
1409.301291793313
219.11398176291792
-1912.2674772036473
632.4426291793313
966.0934650455927
-1713.0729483282673
-253.97302431610942
1364.4825227963524
-727.0600303951368
-657.3419452887538
1364.4825227963524
149.39589665653494
-2061.663373860182
378.4696048632219
1772.8313069908813
-652.3620820668692
373.4897416413374
2290.7370820668693
318.7112462006079
-204.17439209726442
2325.596124620061
1145.3685410334347
-1155.3282674772036
1588.5763677811549
2699.085866261398
-64.73822188449847
1010.9122340425531
3580.521656534954
1045.7712765957447
64.73822188449847
2853.4616261398173
2270.817629179331
831.6371580547112
2599.488601823708
3266.7902735562307
1767.851443768997
3391.286854103343
4989.822948328268
3002.8575227963524
2868.401215805471
5273.675151975684
4168.145516717325
2201.0995440729484
4616.33320668693
5079.460486322188
1922.2272036474162
2141.341185410334
3520.7632978723404
1548.7374620060789
1115.4893617021276
2559.649696048632
722.0801671732522
-926.2545592705167
751.9593465045592
811.7177051671732
-1757.8917173252278
-931.2344224924012
911.3149696048632
-1105.5296352583587
-1513.8784194528876
74.69794832826747
-821.6774316109422
-1977.0056990881458
-1060.7108662613982
-627.4627659574468
-1957.0862462006078
-1528.8180091185409
94.61740121580547
-946.1740121580547
-1454.1200607902736
89.63753799392097
-642.4023556231002
-1797.7306231003038
-34.859042553191486
234.05357142857142
-2355.4753039513676
-1653.3145896656533
791.7982522796352
-981.0330547112461
-2549.689969604863
69.71808510638297
14.939589665653495
-2559.649696048632
-194.21466565349544
986.0129179331307
-2335.55585106383
-1359.502659574468
642.4023556231002
-1548.7374620060789
-1996.9251519756838
-298.7917933130699
-732.0398936170212
-1847.529255319149
-647.3822188449848
19.919452887537993
-2216.039133738602
-1598.536094224924
976.0531914893617
-1942.1466565349542
-2559.649696048632
458.14741641337383
-1349.542933130699
-2420.213525835866
283.8522036474164
288.8320668693009
-2320.616261398176
-1493.9589665653496
398.3890577507599
-1872.4285714285713
-3132.3339665653493
-283.8522036474164
39.838905775075986
-2828.562310030395
-1613.4756838905773
727.0600303951368
-1025.8518237082067
-84.65767477203647
1195.1671732522796
-906.3351063829787
-607.5433130699088
1424.2408814589664
358.5501519756839
-1479.019376899696
184.25493920972644
-64.73822188449847
-3411.2063069908813
-2455.072568389058
268.9126139817629
-1304.7241641337384
-2071.623100303951
348.5904255319149
-1010.9122340425531
-3655.219604863222
-1090.590045592705
-398.3890577507599
-2923.1797112462004
-1384.4019756838904
453.16755319148933
-2016.8446048632218
-2783.7435410334347
-976.0531914893617
-1996.9251519756838
-3525.743161094225
891.3955167173252
6653.09726443769
9476.6797112462
14595.979103343465
13998.395516717324
2300.696808510638
-4506.776215805471
-2738.924772036474
-1986.965425531915
-1947.126519756839
-129.47644376899694
99.59726443768997
-1977.0056990881458
-871.4760638297872
293.8119300911854
-2435.1531155015196
-2315.6363981762916
607.5433130699088
-239.03343465045592
-1882.3882978723404
776.8586626139818
1140.38867781155
-1708.093085106383
-717.1003039513678
677.2613981762918
-816.6975683890577
-1464.0797872340424
687.2211246200608
846.5767477203647
-1583.5965045592704
109.55699088145896
1444.1603343465044
-1235.0060790273556
-64.73822188449847
1314.6838905775076
-1668.254179331307
-951.1538753799392
1742.9521276595744
-19.919452887537993
-1190.187310030395
981.0330547112461
1449.1401975683889
159.35562310030394
1304.7241641337384
2330.5759878419453
239.03343465045592
-169.31534954407294
2086.562689969605
1852.5091185410333
219.11398176291792
2499.891337386018
2888.320668693009
388.4293313069909
2987.917933130699
4810.547872340425
2295.716945288754
2126.401595744681
4307.581686930091
3540.682750759878
2071.623100303951
4332.481003039514
4347.420592705167
1937.1667933130698
3097.4749240121578
3361.4076747720364
946.1740121580547
746.9794832826748
2260.857902735562
776.8586626139818
-1005.9323708206687
154.37575987841944
398.3890577507599
-1932.1869300911853
-1010.9122340425531
876.4559270516717
-1977.0056990881458
-2141.341185410334
368.5098784194529
-1967.045972644377
-3774.73632218845
54.77849544072948
263.9327507598784
-2654.267097264438
-1424.2408814589664
34.859042553191486
-1981.9855623100302
-2554.6698328267476
333.6508358662614
-408.34878419452883
-2893.3005319148933
-687.2211246200608
-99.59726443768997
-2415.233662613982
-1185.2074468085107
-791.7982522796352
-2275.7974924012155
-1902.3077507598784
-174.29521276595744
-667.3016717325228
-3142.293693009118
-1289.784574468085
-159.35562310030394
-1777.8111702127658
-781.8385258358662
-174.29521276595744
-1827.609802431611
-2201.0995440729484
24.899316109422493
-951.1538753799392
-3600.4411094224924
-926.2545592705167
169.31534954407294
-2479.97188449848
-1643.3548632218844
-298.7917933130699
-1927.207066869301
-2604.4684650455924
-1160.308130699088
-1444.1603343465044
-2778.76367781155
-821.6774316109422
54.77849544072948
-2534.75037993921
-2569.609422492401
-995.9726443768997
-1732.9924012158053
-2639.327507598784
-986.0129179331307
-229.07370820668692
-1847.529255319149
-811.7177051671732
-428.26823708206683
-2330.5759878419453
-4.979863221884498
1444.1603343465044
-961.1136018237081
-1075.6504559270516
911.3149696048632
-443.20782674772033
-2838.522036474164
-378.4696048632219
796.7781155015198
-2529.7705167173253
-1952.1063829787233
-99.59726443768997
-2918.199848024316
-2813.6227203647413
-303.7716565349544
-1419.261018237082
-2539.730243161094
-667.3016717325228
-577.6641337386018
-3301.649316109422
-2654.267097264438
-368.5098784194529
-1668.254179331307
-2385.3544832826747
49.798632218844986
-1603.5159574468084
-5607.325987841945
-1832.5896656534953
5094.400075987842
8988.65311550152
14112.932370820668
16144.716565349543
6558.479863221884
-3724.937689969605
-2679.16641337386
-2290.7370820668693
-3700.038373860182
328.6709726443769
741.9996200607902
-1877.4084346504558
-1020.8719604863221
298.7917933130699
-727.0600303951368
-2898.2803951367778
-2260.857902735562
-179.27507598784194
-1304.7241641337384
-124.49658054711246
771.8787993920972
-1897.3278875379938
-1055.7310030395136
-14.939589665653495
-2206.079407294833
-1837.5695288753798
1170.267857142857
333.6508358662614
-1872.4285714285713
507.94604863221883
1075.6504559270516
-2694.106003039514
-1344.5630699088144
1628.4152735562309
-861.5163373860182
-1354.5227963525836
1673.2340425531913
493.00645896656533
-1957.0862462006078
-129.47644376899694
1513.8784194528876
-318.7112462006079
-308.7515197568389
2499.891337386018
995.9726443768997
-443.20782674772033
2489.9316109422493
2265.8377659574467
244.01329787234042
2171.2203647416413
3127.354103343465
986.0129179331307
1986.965425531915
4237.863601823708
2803.6629939209724
971.0733282674771
2245.918313069909
3545.6626139817627
2714.0254559270516
3983.8905775075987
5388.212006079028
2604.4684650455924
2290.7370820668693
4183.085106382979
1195.1671732522796
-453.16755319148933
2425.1933890577507
1259.905395136778
-1548.7374620060789
517.9057750759878
692.2009878419452
-2385.3544832826747
-1807.690349544073
-29.87917933130699
-1628.4152735562309
-2026.804331306991
647.3822188449848
-781.8385258358662
-3212.0117781155013
-761.9190729483282
-732.0398936170212
-3142.293693009118
-1220.066489361702
418.30851063829783
-1917.2473404255318
-2141.341185410334
-512.9259118541033
-1618.455547112462
-2838.522036474164
-1210.106762917933
-657.3419452887538
-2031.7841945288753
-1623.4354103343464
-358.5501519756839
-1200.147036474164
-2206.079407294833
-692.2009878419452
-791.7982522796352
-2853.4616261398173
-1000.9525075987841
318.7112462006079
-2096.522416413374
-1797.7306231003038
-572.6842705167173
-1807.690349544073
-1897.3278875379938
-388.4293313069909
-1603.5159574468084
-3082.5353343465044
-712.1204407294832
-174.29521276595744
-2728.965045592705
-1633.3951367781153
-34.859042553191486
-2056.683510638298
-2499.891337386018
-239.03343465045592
-737.0197568389058
-3097.4749240121578
-906.3351063829787
-109.55699088145896
-3889.2731762917933
-2091.5425531914893
741.9996200607902
-2699.085866261398
-2833.5421732522796
463.12727963525833
-727.0600303951368
-2554.6698328267476
-1324.6436170212764
-1249.945668693009
-3007.837386018237
-1239.98594224924
926.2545592705167
-1170.267857142857
-1772.8313069908813
1185.2074468085107
572.6842705167173
-2036.7640577507598
-59.75835866261398
602.5634498480243
-2076.6029635258355
-1190.187310030395
806.7378419452887
-2026.804331306991
-3754.8168693009115
-572.6842705167173
-1319.663753799392
-3431.125759878419
-692.2009878419452
114.53685410334346
-2963.0186170212764
-2216.039133738602
169.31534954407294
-2061.663373860182
-3077.55547112462
-776.8586626139818
-1145.3685410334347
-3197.072188449848
-1658.294452887538
-1713.0729483282673
-3371.3674012158053
2529.7705167173253
10567.269756838905
13634.865501519756
15756.287234042553
11443.725683890578
-373.4897416413374
-4377.299772036474
-1030.831686930091
-298.7917933130699
-2106.4821428571427
-712.1204407294832
368.5098784194529
-2400.294072948328
-2136.36132218845
358.5501519756839
-682.2412613981762
-2270.817629179331
69.71808510638297
-483.04673252279633
-3147.273556231003
-1070.670592705167
1324.6436170212764
-1185.2074468085107
-2166.240501519757
811.7177051671732
-632.4426291793313
-2972.9783434650453
-383.4494680851064
1264.8852583586627
-831.6371580547112
-1419.261018237082
483.04673252279633
-667.3016717325228
-1205.1268996960487
1140.38867781155
-458.14741641337383
-1907.287613981763
821.6774316109422
1573.6367781155016
-368.5098784194529
94.61740121580547
1195.1671732522796
-582.6439969604863
-468.10714285714283
2146.3210486322187
1483.9992401215804
-323.6911094224924
1608.4958206686929
2997.877659574468
821.6774316109422
1195.1671732522796
2997.877659574468
1603.5159574468084
1897.3278875379938
4442.037993920972
3904.2127659574467
2026.804331306991
3934.091945288754
5114.31952887538
2265.8377659574467
3137.3138297872338
5174.077887537994
2211.0592705167173
1185.2074468085107
3884.2933130699084
2410.2537993920973
-119.51671732522796
1354.5227963525836
-54.77849544072948
-2036.7640577507598
-104.57712765957446
667.3016717325228
-1160.308130699088
-1932.1869300911853
-34.859042553191486
-453.16755319148933
-2833.5421732522796
-1045.7712765957447
84.65767477203647
-2977.9582066869298
-2091.5425531914893
169.31534954407294
-1996.9251519756838
-2544.7101063829787
-363.5300151975684
-901.3552431610942
-3112.4145136778116
-1304.7241641337384
204.17439209726442
-3321.5687689969604
-2858.441489361702
662.3218085106382
-1384.4019756838904
-2992.8977963525836
-74.69794832826747
-741.9996200607902
-4237.863601823708
-1483.9992401215804
976.0531914893617
-1479.019376899696
-1344.5630699088144
288.8320668693009
-1887.368161094225
-3346.4680851063827
-707.1405775075988
-517.9057750759878
-2639.327507598784
-1165.2879939209727
-278.8723404255319
-2992.8977963525836
-2086.562689969605
204.17439209726442
-1927.207066869301
-2474.9920212765956
234.05357142857142
-976.0531914893617
-3804.615501519757
-1752.9118541033433
-179.27507598784194
-2479.97188449848
-1663.2743161094224
463.12727963525833
-2380.37462006079
-2987.917933130699
-293.8119300911854
-1205.1268996960487
-2624.3879179331307
-990.9927811550151
-682.2412613981762
-2365.435030395137
-1483.9992401215804
-348.5904255319149
-1867.448708206687
-1867.448708206687
-358.5501519756839
-657.3419452887538
-1464.0797872340424
-179.27507598784194
756.9392097264438
-1593.5562310030396
-448.18768996960483
1060.7108662613982
-1981.9855623100302
-1543.7575987841944
682.2412613981762
-662.3218085106382
-2136.36132218845
-876.4559270516717
-597.5835866261398
-2758.844224924012
-2554.6698328267476
-433.24810030395133
-1653.3145896656533
-2803.6629939209724
-567.7044072948328
-1200.147036474164
-3162.2131458966564
-1120.469224924012
-771.8787993920972
-2987.917933130699
-1996.9251519756838
-831.6371580547112
-2828.562310030395
-3904.2127659574467
-189.23480243161094
5039.621580547112
9655.954787234043
17051.051671732523
18993.198328267477
7305.459346504559
-2649.287234042553
-1568.6569148936169
-2255.878039513678
-2928.159574468085
1000.9525075987841
-577.6641337386018
-2963.0186170212764
-891.3955167173252
-278.8723404255319
-2136.36132218845
-1802.7104863221884
468.10714285714283
-1354.5227963525836
-1772.8313069908813
358.5501519756839
-1220.066489361702
-1947.126519756839
-24.899316109422493
453.16755319148933
-1493.9589665653496
-746.9794832826748
1528.8180091185409
-1235.0060790273556
-2913.2199848024316
204.17439209726442
617.5030395136778
-1568.6569148936169
348.5904255319149
1175.2477203647416
-1568.6569148936169
-258.9528875379939
1259.905395136778
-826.6572948328267
-667.3016717325228
2081.5828267477204
901.3552431610942
-1150.348404255319
1464.0797872340424
2051.7036474164133
-258.9528875379939
667.3016717325228
2644.3073708206684
1459.099924012158
542.8050911854103
2723.9851823708204
2833.5421732522796
1508.8985562310029
3665.1793313069907
4033.6892097264436
1558.697188449848
3351.447948328267
5438.010638297872
3162.2131458966564
3012.8172492401213
4616.33320668693
3949.031534954407
2121.4217325227964
3082.5353343465044
4636.2526595744675
1613.4756838905773
1120.469224924012
3221.97150455927
642.4023556231002
-856.5364741641337
771.8787993920972
-29.87917933130699
-1309.704027355623
-19.919452887537993
592.6037234042553
-1807.690349544073
-1827.609802431611
-29.87917933130699
-1603.5159574468084
-2430.173252279635
-124.49658054711246
-761.9190729483282
-3142.293693009118
-981.0330547112461
-59.75835866261398
-2684.1462765957444
-1713.0729483282673
144.41603343465044
-1608.4958206686929
-2320.616261398176
-14.939589665653495
-831.6371580547112
-2554.6698328267476
-69.71808510638297
403.36892097264433
-2016.8446048632218
-1762.8715805471124
-587.6238601823708
-1479.019376899696
-1991.9452887537993
-293.8119300911854
-119.51671732522796
-2589.528875379939
-1125.4490881458967
473.08700607902733
-2624.3879179331307
-2230.978723404255
89.63753799392097
-1319.663753799392
-1807.690349544073
-69.71808510638297
-597.5835866261398
-2669.206686930091
-1503.9186930091184
537.8252279635258
-2385.3544832826747
-3097.4749240121578
-94.61740121580547
-1474.0395136778116
-2524.7906534954404
-458.14741641337383
-737.0197568389058
-2355.4753039513676
-682.2412613981762
-313.7313829787234
-2489.9316109422493
-1852.5091185410333
-119.51671732522796
-1399.341565349544
-2375.394756838906
-647.3822188449848
-1698.133358662614
-3475.94452887538
-637.4224924012158
1175.2477203647416
-2315.6363981762916
-1812.6702127659573
1732.9924012158053
-1095.5699088145896
-2714.0254559270516
627.4627659574468
662.3218085106382
-1225.0463525835867
169.31534954407294
1025.8518237082067
-1195.1671732522796
-1718.052811550152
84.65767477203647
-1847.529255319149
-3580.521656534954
-831.6371580547112
-502.96618541033433
-2201.0995440729484
-1469.0596504559269
-722.0801671732522
-2340.535714285714
-2559.649696048632
-159.35562310030394
-1618.455547112462
-3595.4612462006075
-746.9794832826748
-652.3620820668692
-2982.9380699088147
-2355.4753039513676
-2425.1933890577507
-3829.514817629179
1230.026215805471
10632.007978723404
14675.656914893616
16767.199468085106
13425.711246200608
1449.1401975683889
-4546.615121580547
-1488.9791033434649
-497.98632218844983
-2992.8977963525836
-1488.9791033434649
