0.000000
0.000000
0.000000
0.000000
0.000000
0.000000
0.000000
0.000000
0.000000
0.000000
0.000000
0.000000
0.000000
0.000000
0.000000
0.000000
0.000000
0.000000
0.000000
0.000000
0.000000
0.000000
0.000000
0.000000
0.000000
0.000000
0.000000
0.000000
0.000000
0.000000
0.000000
0.000000
0.000000
0.000000
0.000000
0.000000
0.000000
0.000000
0.000000
0.000000
0.000000
0.000000
0.000000
0.000000
0.000000
0.000000
0.000000
0.000000
0.000000
0.000000
0.000000
0.000000
0.000000
0.000000
0.000000
0.000000
0.000000
0.000000
0.000000
0.000000
0.000000
0.000000
0.000000
0.000000
0.000000
0.000000
0.000000
0.000000
0.000000
0.000000
0.000000
0.000000
0.000000
0.000000
0.000000
0.000000
0.000000
0.000000
0.000000
0.000000
0.000000
0.000000
0.000000
0.000000
0.000000
0.000000
0.000000
0.000000
0.000000
0.000000
0.000000
0.000000
0.000000
0.000000
0.000000
0.000000
0.000000
0.000000
0.000000
0.000000
0.000000
0.000000
0.000000
0.000000
0.000000
0.000000
0.000000
0.000000
0.000000
0.000000
0.000000
0.000000
0.000000
0.000000
0.000000
0.000000
0.000000
0.000000
0.000000
0.000000
0.000000
0.000000
0.000000
0.000000
0.000000
0.000000
0.000000
0.000000
0.000000
0.000000
0.000000
0.000000
0.000000
0.000000
0.000000
0.000000
0.000000
0.000000
0.000000
0.000000
0.000000
0.000000
0.000000
0.000000
0.000000
0.000000
0.000000
0.000000
0.000000
0.000000
0.000000
0.000000
0.000000
0.000000
0.000000
0.000000
0.000000
0.000000
0.000000
0.000000
0.000000
0.000000
0.000000
0.000000
0.000000
0.000000
0.000000
0.000000
0.000000
0.000000
0.000000
0.000000
0.000000
0.000000
0.000000
0.000000
0.000000
0.000000
0.000000
0.000000
0.000000
0.000000
0.000000
0.000000
0.000000
0.000000
0.000000
0.000000
0.000000
0.000000
0.000000
0.000000
0.000000
0.000000
0.000000
0.000000
0.000000
0.000000
0.000000
0.000000
0.000000
0.000000
0.000000
0.000000
0.000000
0.000000
0.000000
0.000000
0.000000
0.000000
0.000000
0.000000
0.000000
0.000000
0.000000
0.000000
0.000000
0.000000
0.000000
0.000000
0.000000
0.000000
0.000000
0.000000
0.000000
0.000000
0.000000
0.000000
0.000000
0.000000
0.000000
0.000000
0.000000
0.000000
0.000000
0.000000
0.000000
0.000000
0.000000
0.000000
0.000000
0.000000
0.000000
0.000000
0.000000
0.000000
0.000000
0.000000
0.000000
0.000000
0.000000
0.000000
0.000000
0.000000
0.000000
0.000000
0.000000
0.000000
0.000000
0.000000
0.000000
0.000000
0.000000
0.000000
0.000000
0.000000
0.000000
0.000000
0.000000
0.000000
0.000000
0.000000
0.000000
0.000000
0.000000
0.000000
0.000000
0.000000
0.000000
0.000000
0.000000
0.000000
0.000000
0.000000
0.000000
0.000000
0.000000
0.000000
0.000000
0.000000
0.000000
0.000000
0.000000
0.000000
0.000000
0.000000
0.000000
0.000000
0.000000
0.000000
0.000000
0.000000
0.000000
0.000000
0.000000
0.000000
0.000000
0.000000
0.000000
0.000000
0.000000
0.000000
0.000000
0.000000
0.000000
0.000000
0.000000
0.000000
0.000000
0.000000
0.000000
0.000000
0.000000
0.000000
0.000000
0.000000
0.000000
0.000000
0.000000
0.000000
0.000000
0.000000
0.000000
0.000000
0.000000
0.000000
0.000000
0.000000
0.000000
0.000000
0.000000
0.000000
0.000000
0.000000
0.000000
0.000000
0.000000
0.000000
0.000000
0.000000
0.000000
0.000000
0.000000
0.000000
0.000000
0.000000
0.000000
0.000000
0.000000
0.000000
0.000000
0.000000
0.000000
0.000000
0.000000
0.000000
0.000000
0.000000
0.000000
0.000000
0.000000
0.000000
0.000000
0.000000
0.000000
0.000000
0.000000
0.000000
0.000000
0.000000
0.000000
0.000000
0.000000
0.000000
0.000000
0.000000
0.000000
0.000000
0.000000
0.000000
0.000000
0.000000
0.000000
0.000000
0.000000
0.000000
0.000000
0.000000
0.000000
0.000000
-619.990540
-387.994080
-1239.981079
-903.986206
-463.992920
-1007.984619
-1083.983459
-411.993713
-671.989746
-1083.983459
-463.992920
-283.995667
-1031.984253
-747.988586
-207.996826
-875.986633
-903.986206
-207.996826
-539.991760
-903.986206
-387.994080
-127.998047
-823.987427
-411.993713
-207.996826
-567.991333
-695.989380
75.998840
-283.995667
-591.990967
-75.998840
23.999634
-619.990540
-387.994080
75.998840
-439.993286
-539.991760
283.995667
0.000000
-283.995667
179.997253
411.993713
-359.994507
-23.999634
411.993713
-23.999634
-179.997253
643.990173
259.996033
-51.999207
335.994873
539.991760
-231.996460
207.996826
515.992126
23.999634
51.999207
775.988159
491.992493
155.997620
695.989380
799.987793
-23.999634
463.992920
823.987427
539.991760
335.994873
1031.984253
723.988953
387.994080
799.987793
927.985840
231.996460
591.990967
1059.983826
695.989380
387.994080
1315.979919
799.987793
411.993713
1007.984619
1135.982666
359.994507
799.987793
1263.980713
799.987793
775.988159
1495.977173
1187.981873
799.987793
1239.981079
1495.977173
671.989746
1007.984619
1547.976379
1083.983459
1159.982300
1807.972412
1419.978333
1059.983826
1523.976746
1623.975220
1159.982300
1419.978333
1779.972839
1367.979126
1263.980713
2091.968079
1703.973999
1367.979126
1831.972046
2011.969299
1291.980286
1675.974426
2243.965759
1703.973999
1703.973999
2375.963745
2139.967346
1779.972839
2219.966125
2399.963379
1675.974426
1987.969666
2399.963379
1987.969666
2011.969299
2631.959839
2347.964172
1959.970093
2451.962585
2555.960999
1859.971619
2115.967712
2503.961792
2063.968506
2091.968079
2839.956665
2475.962219
2063.968506
2631.959839
2839.956665
2091.968079
2399.963379
2811.957092
2347.964172
2271.965332
3019.953918
2707.958679
2271.965332
2863.956299
2991.954346
2347.964172
2659.959412
3043.953552
2503.961792
2423.963013
3147.951965
2839.956665
2503.961792
3019.953918
3123.952332
2399.963379
2683.959045
3043.953552
2555.960999
2399.963379
3199.951172
2759.957886
2347.964172
2915.955505
3095.952759
2323.964539
2631.959839
3019.953918
2503.961792
2347.964172
3251.950378
2787.957458
2347.964172
2915.955505
2967.954712
2375.963745
2659.959412
2891.955872
2475.962219
2399.963379
3175.951538
2839.956665
2527.961426
2967.954712
3095.952759
2243.965759
2631.959839
2991.954346
2503.961792
2503.961792
3123.952332
2863.956299
2347.964172
2967.954712
3019.953918
2219.966125
2527.961426
2787.957458
2271.965332
2271.965332
3043.953552
2683.959045
2295.964966
2707.958679
2787.957458
1987.969666
2347.964172
2631.959839
2139.967346
1959.970093
2659.959412
2219.966125
1779.972839
2243.965759
2295.964966
1575.975952
1959.970093
2323.964539
1859.971619
1727.973633
2399.963379
1987.969666
1651.974792
2167.966919
2191.966553
1471.977539
1779.972839
2139.967346
1727.973633
1575.975952
2219.966125
1807.972412
1419.978333
1907.970886
2063.968506
1419.978333
1727.973633
2011.969299
1523.976746
1419.978333
2063.968506
1807.972412
1339.979553
1727.973633
1727.973633
875.986633
1211.981506
1575.975952
1059.983826
979.985046
1703.973999
1367.979126
1107.983093
1575.975952
1727.973633
1007.984619
1315.979919
1755.973206
1339.979553
1187.981873
2011.969299
1599.975586
1159.982300
1703.973999
1779.972839
955.985413
1339.979553
1623.975220
1239.981079
1107.983093
1727.973633
1367.979126
1083.983459
1547.976379
1675.974426
851.987000
1315.979919
1727.973633
1263.980713
1107.983093
1755.973206
1263.980713
851.987000
1471.977539
1523.976746
823.987427
1107.983093
1523.976746
1007.984619
927.985840
1755.973206
1419.978333
1007.984619
1443.977966
1575.975952
851.987000
1159.982300
1623.975220
1135.982666
1007.984619
1807.972412
1495.977173
1083.983459
1651.974792
1675.974426
903.986206
1239.981079
1675.974426
1159.982300
1239.981079
1883.971252
1623.975220
1263.980713
1831.972046
1831.972046
1031.984253
1443.977966
1907.970886
1391.978760
1263.980713
1987.969666
1755.973206
1263.980713
1907.970886
2011.969299
1211.981506
1651.974792
2039.968872
1443.977966
1471.977539
2243.965759
1831.972046
1523.976746
1987.969666
1987.969666
1315.979919
1623.975220
1959.970093
1547.976379
1443.977966
2139.967346
1883.971252
1547.976379
2063.968506
2167.966919
1419.978333
1727.973633
2091.968079
1599.975586
1547.976379
2271.965332
2039.968872
1651.974792
2115.967712
2115.967712
1291.980286
1755.973206
2139.967346
1651.974792
1575.975952
2295.964966
1935.970459
1495.977173
1987.969666
2167.966919
1443.977966
1755.973206
2063.968506
1523.976746
1443.977966
2219.966125
1859.971619
1523.976746
2115.967712
2295.964966
1495.977173
1831.972046
2295.964966
1703.973999
1623.975220
2423.963013
2063.968506
1675.974426
2115.967712
2323.964539
1495.977173
1959.970093
2375.963745
1755.973206
1547.976379
2323.964539
1959.970093
1547.976379
2039.968872
2167.966919
1523.976746
1907.970886
2347.964172
1727.973633
1575.975952
2399.963379
2039.968872
1623.975220
2167.966919
2295.964966
1575.975952
1987.969666
2423.963013
1883.971252
1779.972839
2475.962219
2091.968079
1703.973999
2167.966919
2219.966125
1443.977966
1831.972046
2167.966919
1727.973633
1443.977966
2295.964966
1831.972046
1523.976746
2011.969299
2139.967346
1315.979919
1807.972412
2063.968506
1575.975952
1471.977539
2243.965759
1807.972412
1443.977966
2063.968506
2115.967712
1419.978333
1859.971619
2219.966125
1651.974792
1575.975952
2271.965332
1859.971619
1547.976379
2011.969299
2139.967346
1339.979553
1779.972839
2091.968079
1651.974792
1471.977539
2243.965759
1907.970886
1547.976379
1987.969666
2139.967346
1443.977966
1807.972412
2271.965332
1703.973999
1651.974792
2295.964966
1987.969666
1599.975586
2091.968079
2243.965759
1495.977173
1859.971619
2115.967712
1651.974792
1523.976746
2295.964966
1755.973206
1391.978760
1859.971619
1907.970886
1315.979919
1599.975586
2039.968872
1495.977173
1367.979126
2115.967712
1859.971619
1471.977539
1987.969666
2063.968506
1315.979919
1651.974792
1907.970886
1419.978333
1367.979126
2091.968079
1755.973206
1291.980286
1831.972046
1807.972412
1083.983459
1443.977966
1831.972046
1315.979919
1239.981079
1831.972046
1471.977539
1059.983826
1523.976746
1623.975220
927.985840
1315.979919
1703.973999
1159.982300
1083.983459
1883.971252
1443.977966
1007.984619
1443.977966
1523.976746
799.987793
1107.983093
1599.975586
1107.983093
1059.983826
1807.972412
1471.977539
1031.984253
1471.977539
1623.975220
903.986206
1211.981506
1599.975586
1031.984253
1007.984619
1547.976379
1211.981506
799.987793
1291.980286
1391.978760
671.989746
1059.983826
1339.979553
851.987000
823.987427
1575.975952
1263.980713
875.986633
1263.980713
1419.978333
619.990540
1031.984253
1367.979126
875.986633
747.988586
1599.975586
1107.983093
723.988953
1211.981506
1263.980713
515.992126
875.986633
1187.981873
723.988953
591.990967
1291.980286
1083.983459
591.990967
1263.980713
1339.979553
491.992493
875.986633
1263.980713
747.988586
671.989746
1239.981079
979.985046
591.990967
1187.981873
1291.980286
463.992920
979.985046
1367.979126
851.987000
723.988953
1523.976746
1107.983093
747.988586
1315.979919
1339.979553
671.989746
1159.982300
1419.978333
903.986206
823.987427
1495.977173
1059.983826
747.988586
1263.980713
1263.980713
619.990540
1031.984253
1443.977966
955.985413
903.986206
1703.973999
1239.981079
903.986206
1315.979919
1367.979126
619.990540
1107.983093
1523.976746
979.985046
927.985840
1651.974792
1391.978760
1007.984619
1471.977539
1599.975586
851.987000
1135.982666
1523.976746
1059.983826
955.985413
1755.973206
1315.979919
955.985413
1471.977539
1651.974792
875.986633
1263.980713
1599.975586
1211.981506
1007.984619
1779.972839
1339.979553
955.985413
1547.976379
1651.974792
799.987793
1211.981506
1547.976379
903.986206
979.985046
1675.974426
1391.978760
1007.984619
1623.975220
1547.976379
747.988586
1291.980286
1623.975220
1211.981506
1083.983459
1907.970886
1391.978760
1107.983093
1419.978333
1523.976746
747.988586
1159.982300
1547.976379
979.985046
927.985840
1651.974792
1263.980713
875.986633
1471.977539
1547.976379
823.987427
1187.981873
1547.976379
1007.984619
979.985046
1779.972839
1211.981506
903.986206
1443.977966
1391.978760
671.989746
1031.984253
1391.978760
927.985840
747.988586
1419.978333
1031.984253
515.992126
1187.981873
1107.983093
387.994080
851.987000
1059.983826
643.990173
619.990540
1291.980286
955.985413
567.991333
1083.983459
1107.983093
307.995300
723.988953
1083.983459
539.991760
567.991333
1315.979919
851.987000
439.993286
979.985046
979.985046
307.995300
695.989380
1007.984619
515.992126
359.994507
1059.983826
747.988586
411.993713
955.985413
955.985413
307.995300
567.991333
979.985046
335.994873
307.995300
1031.984253
695.989380
207.996826
799.987793
823.987427
51.999207
335.994873
775.988159
207.996826
155.997620
927.985840
463.992920
155.997620
723.988953
695.989380
-75.998840
335.994873
747.988586
259.996033
51.999207
799.987793
359.994507
-23.999634
567.991333
671.989746
-51.999207
411.993713
851.987000
283.995667
259.996033
927.985840
539.991760
155.997620
619.990540
723.988953
-103.998413
359.994507
747.988586
207.996826
155.997620
851.987000
515.992126
179.997253
747.988586
875.986633
75.998840
491.992493
955.985413
359.994507
335.994873
1059.983826
515.992126
231.996460
747.988586
823.987427
75.998840
567.991333
823.987427
387.994080
231.996460
1007.984619
619.990540
259.996033
875.986633
927.985840
207.996826
671.989746
927.985840
463.992920
411.993713
1083.983459
643.990173
307.995300
927.985840
1007.984619
359.994507
723.988953
1083.983459
515.992126
463.992920
1211.981506
823.987427
491.992493
955.985413
1059.983826
335.994873
671.989746
1083.983459
491.992493
439.993286
1239.981079
823.987427
539.991760
1135.982666
1107.983093
359.994507
823.987427
1031.984253
491.992493
515.992126
1159.982300
799.987793
307.995300
851.987000
927.985840
155.997620
643.990173
1083.983459
387.994080
411.993713
1187.981873
875.986633
491.992493
1083.983459
1187.981873
463.992920
851.987000
1107.983093
695.989380
591.990967
1367.979126
955.985413
539.991760
1159.982300
1107.983093
491.992493
875.986633
1263.980713
747.988586
671.989746
1391.978760
927.985840
567.991333
1007.984619
1187.981873
411.993713
775.988159
1187.981873
619.990540
539.991760
1239.981079
799.987793
387.994080
979.985046
1187.981873
335.994873
851.987000
1239.981079
799.987793
775.988159
1495.977173
1083.983459
695.989380
1211.981506
1159.982300
387.994080
903.986206
1187.981873
643.990173
591.990967
1367.979126
955.985413
567.991333
1107.983093
1107.983093
335.994873
903.986206
1239.981079
619.990540
567.991333
1367.979126
979.985046
775.988159
1239.981079
1211.981506
491.992493
927.985840
1187.981873
643.990173
695.989380
1391.978760
1031.984253
567.991333
1135.982666
1107.983093
515.992126
799.987793
1107.983093
515.992126
539.991760
1211.981506
851.987000
387.994080
1031.984253
875.986633
231.996460
671.989746
1031.984253
439.993286
387.994080
1031.984253
643.990173
387.994080
979.985046
903.986206
231.996460
591.990967
955.985413
411.993713
411.993713
1083.983459
723.988953
307.995300
875.986633
955.985413
179.997253
619.990540
903.986206
411.993713
411.993713
1083.983459
619.990540
335.994873
903.986206
903.986206
207.996826
567.991333
1031.984253
411.993713
411.993713
1059.983826
643.990173
283.995667
799.987793
823.987427
179.997253
567.991333
851.987000
259.996033
207.996826
823.987427
439.993286
179.997253
723.988953
799.987793
-51.999207
439.993286
903.986206
283.995667
283.995667
1059.983826
567.991333
307.995300
823.987427
775.988159
75.998840
567.991333
723.988953
307.995300
207.996826
1007.984619
591.990967
179.997253
927.985840
823.987427
127.998047
439.993286
851.987000
283.995667
207.996826
1031.984253
491.992493
179.997253
747.988586
823.987427
179.997253
619.990540
979.985046
387.994080
307.995300
1031.984253
619.990540
259.996033
823.987427
823.987427
179.997253
643.990173
799.987793
411.993713
335.994873
1135.982666
671.989746
439.993286
851.987000
823.987427
179.997253
591.990967
955.985413
387.994080
359.994507
1083.983459
671.989746
359.994507
927.985840
903.986206
155.997620
619.990540
875.986633
335.994873
283.995667
1135.982666
671.989746
387.994080
927.985840
979.985046
259.996033
695.989380
1083.983459
491.992493
539.991760
1059.983826
955.985413
439.993286
1107.983093
1107.983093
283.995667
747.988586
1187.981873
515.992126
567.991333
1391.978760
875.986633
463.992920
955.985413
1031.984253
307.995300
723.988953
1031.984253
491.992493
491.992493
1239.981079
851.987000
539.991760
1107.983093
1059.983826
439.993286
723.988953
1107.983093
591.990967
591.990967
1291.980286
927.985840
539.991760
1159.982300
1187.981873
463.992920
875.986633
1239.981079
643.990173
695.989380
1339.979553
927.985840
567.991333
1263.980713
1187.981873
387.994080
851.987000
1263.980713
591.990967
643.990173
1291.980286
875.986633
539.991760
1159.982300
1159.982300
463.992920
851.987000
1159.982300
539.991760
491.992493
1059.983826
723.988953
307.995300
927.985840
903.986206
127.998047
567.991333
927.985840
387.994080
259.996033
979.985046
491.992493
155.997620
671.989746
747.988586
51.999207
439.993286
823.987427
179.997253
207.996826
851.987000
335.994873
-23.999634
539.991760
539.991760
-155.997620
259.996033
591.990967
51.999207
23.999634
671.989746
207.996826
-51.999207
463.992920
515.992126
-231.996460
207.996826
515.992126
-51.999207
-75.998840
619.990540
103.998413
-259.996033
307.995300
307.995300
-411.993713
-23.999634
283.995667
-231.996460
-231.996460
567.991333
75.998840
-283.995667
307.995300
283.995667
-439.993286
0.000000
259.996033
-283.995667
-207.996826
491.992493
0.000000
-283.995667
179.997253
179.997253
-515.992126
-179.997253
207.996826
-335.994873
-411.993713
307.995300
-179.997253
-567.991333
-51.999207
-103.998413
-823.987427
-359.994507
23.999634
-515.992126
-491.992493
155.997620
-307.995300
-671.989746
-51.999207
-23.999634
-747.988586
-259.996033
75.998840
-491.992493
-539.991760
207.996826
-283.995667
-567.991333
23.999634
0.000000
-799.987793
-259.996033
127.998047
-335.994873
-307.995300
439.993286
23.999634
-491.992493
127.998047
179.997253
-515.992126
-75.998840
335.994873
-179.997253
-207.996826
439.993286
103.998413
-155.997620
359.994507
439.993286
-259.996033
127.998047
463.992920
-51.999207
-103.998413
619.990540
155.997620
-259.996033
283.995667
259.996033
-539.991760
-51.999207
207.996826
-307.995300
-359.994507
387.994080
-51.999207
-411.993713
231.996460
127.998047
-591.990967
-207.996826
103.998413
-463.992920
-439.993286
515.992126
-75.998840
-539.991760
179.997253
75.998840
-643.990173
-231.996460
103.998413
-539.991760
-539.991760
387.994080
-283.995667
-591.990967
0.000000
-103.998413
-979.985046
-463.992920
-207.996826
-927.985840
-955.985413
-439.993286
-619.990540
-979.985046
-411.993713
-491.992493
-1315.979919
-979.985046
-619.990540
-1263.980713
-1315.979919
-903.986206
-1083.983459
-1419.978333
-695.989380
-591.990967
-1339.979553
-927.985840
-619.990540
-1263.980713
-1187.981873
-207.996826
-695.989380
-927.985840
-207.996826
-207.996826
-903.986206
-387.994080
-51.999207
-619.990540
-515.992126
207.996826
-103.998413
-491.992493
259.996033
259.996033
-439.993286
-23.999634
387.994080
-207.996826
-231.996460
567.991333
127.998047
-127.998047
359.994507
411.993713
-283.995667
231.996460
539.991760
-51.999207
0.000000
747.988586
307.995300
-103.998413
643.990173
671.989746
103.998413
539.991760
851.987000
231.996460
335.994873
979.985046
671.989746
307.995300
799.987793
695.989380
-179.997253
439.993286
723.988953
231.996460
259.996033
875.986633
491.992493
179.997253
695.989380
671.989746
-75.998840
283.995667
591.990967
-127.998047
-179.997253
515.992126
23.999634
-411.993713
283.995667
207.996826
-515.992126
-23.999634
231.996460
-359.994507
-231.996460
439.993286
-51.999207
-359.994507
231.996460
231.996460
-539.991760
-179.997253
207.996826
-411.993713
-387.994080
387.994080
-127.998047
-567.991333
127.998047
51.999207
-671.989746
-155.997620
207.996826
-491.992493
-387.994080
307.995300
-127.998047
-463.992920
179.997253
179.997253
-591.990967
-103.998413
179.997253
-307.995300
-307.995300
411.993713
75.998840
-283.995667
411.993713
411.993713
-307.995300
179.997253
491.992493
23.999634
-23.999634
799.987793
283.995667
23.999634
671.989746
671.989746
23.999634
491.992493
799.987793
231.996460
259.996033
1059.983826
591.990967
283.995667
775.988159
799.987793
23.999634
463.992920
799.987793
179.997253
207.996826
955.985413
515.992126
51.999207
619.990540
539.991760
-207.996826
231.996460
619.990540
23.999634
75.998840
799.987793
307.995300
-75.998840
539.991760
463.992920
-179.997253
207.996826
671.989746
75.998840
23.999634
747.988586
259.996033
-23.999634
591.990967
671.989746
-127.998047
411.993713
775.988159
207.996826
179.997253
927.985840
515.992126
155.997620
747.988586
619.990540
-51.999207
283.995667
591.990967
-155.997620
-103.998413
335.994873
-259.996033
-619.990540
-127.998047
-207.996826
-955.985413
-539.991760
-155.997620
-823.987427
-747.988586
207.996826
-491.992493
-723.988953
-207.996826
-103.998413
-851.987000
-259.996033
127.998047
-463.992920
-491.992493
259.996033
-179.997253
-359.994507
491.992493
387.994080
-231.996460
335.994873
619.990540
0.000000
51.999207
723.988953
359.994507
23.999634
643.990173
619.990540
51.999207
411.993713
903.986206
231.996460
259.996033
1059.983826
463.992920
283.995667
723.988953
671.989746
0.000000
491.992493
823.987427
207.996826
259.996033
955.985413
515.992126
179.997253
747.988586
799.987793
179.997253
491.992493
875.986633
259.996033
231.996460
955.985413
515.992126
127.998047
619.990540
619.990540
-179.997253
283.995667
567.991333
-51.999207
-51.999207
671.989746
307.995300
-51.999207
439.993286
439.993286
-307.995300
0.000000
411.993713
-179.997253
-307.995300
387.994080
-23.999634
-307.995300
231.996460
307.995300
-567.991333
-155.997620
259.996033
-359.994507
-439.993286
283.995667
-51.999207
-359.994507
207.996826
259.996033
-671.989746
-179.997253
23.999634
-491.992493
-567.991333
155.997620
-259.996033
-567.991333
51.999207
75.998840
-591.990967
-307.995300
51.999207
-491.992493
-695.989380
127.998047
-307.995300
-695.989380
23.999634
75.998840
-671.989746
-179.997253
179.997253
-411.993713
-359.994507
359.994507
-51.999207
-411.993713
207.996826
231.996460
-439.993286
-51.999207
307.995300
-231.996460
-335.994873
463.992920
51.999207
-207.996826
359.994507
463.992920
-307.995300
231.996460
643.990173
23.999634
23.999634
723.988953
335.994873
103.998413
591.990967
695.989380
75.998840
335.994873
643.990173
103.998413
51.999207
799.987793
463.992920
75.998840
539.991760
515.992126
-283.995667
155.997620
463.992920
-155.997620
-155.997620
463.992920
23.999634
-335.994873
231.996460
155.997620
-515.992126
-259.996033
179.997253
-387.994080
-463.992920
335.994873
-127.998047
-567.991333
23.999634
75.998840
-723.988953
-307.995300
23.999634
-491.992493
-567.991333
51.999207
-283.995667
-619.990540
-127.998047
-207.996826
-799.987793
-567.991333
-283.995667
-823.987427
-875.986633
-155.997620
-619.990540
-903.986206
-411.993713
-387.994080
-1059.983826
-671.989746
-283.995667
-695.989380
-723.988953
51.999207
-259.996033
-567.991333
23.999634
127.998047
-539.991760
-103.998413
335.994873
-307.995300
-283.995667
515.992126
179.997253
-259.996033
491.992493
567.991333
-155.997620
307.995300
619.990540
231.996460
155.997620
875.986633
463.992920
179.997253
671.989746
671.989746
-75.998840
359.994507
643.990173
155.997620
179.997253
799.987793
387.994080
51.999207
515.992126
591.990967
-155.997620
307.995300
619.990540
207.996826
127.998047
823.987427
387.994080
51.999207
643.990173
619.990540
-75.998840
335.994873
643.990173
127.998047
155.997620
775.988159
307.995300
23.999634
387.994080
463.992920
-231.996460
155.997620
515.992126
-75.998840
-127.998047
591.990967
179.997253
-155.997620
335.994873
439.993286
-207.996826
103.998413
463.992920
-75.998840
-127.998047
567.991333
231.996460
-155.997620
335.994873
307.995300
-387.994080
-127.998047
231.996460
-259.996033
-283.995667
359.994507
0.000000
-335.994873
155.997620
179.997253
-567.991333
-127.998047
155.997620
-307.995300
-307.995300
283.995667
-75.998840
-387.994080
127.998047
103.998413
-671.989746
-283.995667
127.998047
-439.993286
-539.991760
155.997620
-283.995667
-567.991333
-23.999634
75.998840
-643.990173
-307.995300
103.998413
-359.994507
-411.993713
207.996826
-103.998413
-515.992126
51.999207
51.999207
-747.988586
-411.993713
51.999207
-439.993286
-515.992126
231.996460
-179.997253
-567.991333
-23.999634
-23.999634
-643.990173
-283.995667
75.998840
-387.994080
-491.992493
179.997253
-179.997253
-591.990967
-75.998840
0.000000
-723.988953
-387.994080
0.000000
-463.992920
-463.992920
231.996460
-75.998840
-539.991760
0.000000
-103.998413
-723.988953
-359.994507
23.999634
-619.990540
-591.990967
155.997620
-231.996460
-591.990967
-103.998413
-75.998840
-747.988586
-387.994080
0.000000
-567.991333
-643.990173
127.998047
-359.994507
-671.989746
-155.997620
-127.998047
-875.986633
-463.992920
-75.998840
-643.990173
-775.988159
23.999634
-335.994873
-695.989380
-207.996826
-259.996033
-903.986206
-747.988586
-359.994507
-1007.984619
-1007.984619
-259.996033
-591.990967
-955.985413
-439.993286
-307.995300
-955.985413
-671.989746
-387.994080
-799.987793
-875.986633
-127.998047
-439.993286
-747.988586
-207.996826
-23.999634
-747.988586
-359.994507
-23.999634
-539.991760
-491.992493
75.998840
-179.997253
-491.992493
51.999207
207.996826
-539.991760
-127.998047
179.997253
-307.995300
-359.994507
359.994507
0.000000
-411.993713
127.998047
231.996460
-463.992920
-51.999207
335.994873
-207.996826
-259.996033
387.994080
51.999207
-283.995667
283.995667
335.994873
-359.994507
-51.999207
411.993713
-207.996826
-307.995300
463.992920
-51.999207
-259.996033
155.997620
207.996826
-567.991333
-75.998840
207.996826
-259.996033
-411.993713
359.994507
51.999207
-231.996460
259.996033
259.996033
-335.994873
0.000000
307.995300
-179.997253
-231.996460
411.993713
75.998840
-259.996033
179.997253
179.997253
-411.993713
-23.999634
283.995667
-179.997253
-207.996826
439.993286
155.997620
-283.995667
127.998047
439.993286
-439.993286
-51.999207
387.994080
-127.998047
-335.994873
387.994080
51.999207
-283.995667
259.996033
283.995667
-439.993286
-75.998840
307.995300
-231.996460
-231.996460
411.993713
51.999207
-307.995300
207.996826
335.994873
-359.994507
23.999634
491.992493
-23.999634
-103.998413
567.991333
259.996033
-179.997253
359.994507
387.994080
-231.996460
127.998047
491.992493
-103.998413
-179.997253
491.992493
283.995667
-103.998413
387.994080
515.992126
-127.998047
155.997620
539.991760
75.998840
0.000000
671.989746
259.996033
-51.999207
439.993286
591.990967
-23.999634
259.996033
643.990173
179.997253
103.998413
823.987427
463.992920
127.998047
591.990967
643.990173
-75.998840
155.997620
591.990967
155.997620
-51.999207
643.990173
307.995300
-75.998840
411.993713
515.992126
-179.997253
103.998413
539.991760
0.000000
-51.999207
695.989380
307.995300
51.999207
439.993286
591.990967
-259.996033
155.997620
539.991760
127.998047
75.998840
747.988586
387.994080
127.998047
387.994080
619.990540
-103.998413
231.996460
619.990540
155.997620
127.998047
747.988586
387.994080
207.996826
515.992126
619.990540
-23.999634
335.994873
671.989746
259.996033
75.998840
823.987427
463.992920
127.998047
515.992126
591.990967
-155.997620
103.998413
491.992493
0.000000
-23.999634
591.990967
179.997253
-207.996826
155.997620
283.995667
-439.993286
-51.999207
231.996460
-103.998413
-259.996033
567.991333
155.997620
-127.998047
259.996033
259.996033
-439.993286
-51.999207
463.992920
-75.998840
-51.999207
643.990173
439.993286
75.998840
491.992493
539.991760
-179.997253
207.996826
619.990540
179.997253
51.999207
723.988953
387.994080
75.998840
539.991760
643.990173
-51.999207
259.996033
567.991333
127.998047
75.998840
723.988953
439.993286
51.999207
463.992920
491.992493
-75.998840
179.997253
539.991760
127.998047
51.999207
695.989380
335.994873
-23.999634
335.994873
491.992493
-283.995667
75.998840
491.992493
0.000000
-127.998047
619.990540
231.996460
-155.997620
335.994873
439.993286
-283.995667
23.999634
387.994080
-155.997620
-283.995667
515.992126
103.998413
-179.997253
207.996826
283.995667
-387.994080
-127.998047
307.995300
-283.995667
-335.994873
307.995300
-23.999634
-411.993713
75.998840
179.997253
-411.993713
-179.997253
231.996460
-231.996460
-411.993713
259.996033
-75.998840
-491.992493
51.999207
155.997620
-539.991760
-259.996033
51.999207
-283.995667
-515.992126
259.996033
-51.999207
-567.991333
75.998840
51.999207
-591.990967
-283.995667
127.998047
-231.996460
-411.993713
155.997620
-207.996826
-567.991333
-51.999207
23.999634
-723.988953
-335.994873
-127.998047
-411.993713
-591.990967
103.998413
-179.997253
-515.992126
-75.998840
-23.999634
-695.989380
-359.994507
-23.999634
-491.992493
-643.990173
155.997620
-259.996033
-619.990540
-155.997620
-23.999634
-671.989746
-411.993713
-75.998840
-491.992493
-567.991333
75.998840
-207.996826
-643.990173
-231.996460
-103.998413
-851.987000
-335.994873
-75.998840
-411.993713
-515.992126
127.998047
-231.996460
-439.993286
-75.998840
0.000000
-643.990173
-359.994507
51.999207
-463.992920
-567.991333
179.997253
-75.998840
-463.992920
23.999634
23.999634
-539.991760
-283.995667
103.998413
-491.992493
-515.992126
231.996460
-51.999207
-359.994507
-51.999207
51.999207
-619.990540
-359.994507
23.999634
-335.994873
-539.991760
207.996826
-103.998413
-491.992493
-51.999207
75.998840
-539.991760
-179.997253
51.999207
-387.994080
-491.992493
231.996460
0.000000
-491.992493
-75.998840
51.999207
-591.990967
-307.995300
51.999207
-359.994507
-439.993286
179.997253
-127.998047
-491.992493
23.999634
127.998047
-515.992126
-259.996033
231.996460
-259.996033
-439.993286
335.994873
103.998413
-307.995300
179.997253
307.995300
-387.994080
-23.999634
259.996033
-103.998413
-259.996033
491.992493
127.998047
-231.996460
231.996460
307.995300
-335.994873
-75.998840
411.993713
-51.999207
-259.996033
539.991760
207.996826
-75.998840
231.996460
439.993286
-283.995667
155.997620
539.991760
75.998840
23.999634
723.988953
411.993713
127.998047
567.991333
643.990173
23.999634
359.994507
591.990967
283.995667
179.997253
875.986633
491.992493
103.998413
619.990540
723.988953
51.999207
283.995667
643.990173
231.996460
155.997620
775.988159
515.992126
127.998047
515.992126
723.988953
-23.999634
283.995667
643.990173
335.994873
127.998047
851.987000
439.993286
103.998413
567.991333
619.990540
-51.999207
307.995300
723.988953
283.995667
103.998413
723.988953
515.992126
75.998840
515.992126
695.989380
-103.998413
103.998413
591.990967
207.996826
75.998840
695.989380
359.994507
51.999207
439.993286
567.991333
-23.999634
231.996460
567.991333
259.996033
155.997620
723.988953
411.993713
-23.999634
491.992493
567.991333
-155.997620
155.997620
515.992126
75.998840
-51.999207
619.990540
231.996460
-103.998413
335.994873
491.992493
-127.998047
127.998047
491.992493
103.998413
-155.997620
515.992126
231.996460
-127.998047
127.998047
411.993713
-307.995300
0.000000
283.995667
-75.998840
-155.997620
491.992493
259.996033
-51.999207
307.995300
463.992920
-231.996460
75.998840
359.994507
23.999634
-127.998047
515.992126
231.996460
-103.998413
231.996460
411.993713
-307.995300
-23.999634
359.994507
75.998840
-155.997620
491.992493
231.996460
-155.997620
307.995300
463.992920
-179.997253
0.000000
411.993713
127.998047
-103.998413
491.992493
231.996460
-127.998047
335.994873
463.992920
-259.996033
75.998840
439.993286
51.999207
-75.998840
515.992126
259.996033
-75.998840
335.994873
387.994080
-179.997253
51.999207
359.994507
0.000000
-127.998047
619.990540
283.995667
-155.997620
259.996033
463.992920
-359.994507
0.000000
307.995300
23.999634
-103.998413
539.991760
307.995300
-127.998047
207.996826
359.994507
-283.995667
-103.998413
387.994080
23.999634
-127.998047
591.990967
307.995300
-51.999207
359.994507
463.992920
-231.996460
-23.999634
439.993286
23.999634
-207.996826
491.992493
307.995300
-179.997253
231.996460
387.994080
-335.994873
75.998840
387.994080
0.000000
-179.997253
591.990967
207.996826
-23.999634
359.994507
491.992493
-179.997253
75.998840
567.991333
127.998047
-75.998840
539.991760
231.996460
-103.998413
359.994507
463.992920
-207.996826
0.000000
463.992920
-23.999634
-51.999207
567.991333
463.992920
-23.999634
411.993713
539.991760
-103.998413
231.996460
539.991760
127.998047
-51.999207
643.990173
359.994507
-23.999634
359.994507
539.991760
-179.997253
75.998840
539.991760
155.997620
-23.999634
643.990173
439.993286
-23.999634
411.993713
515.992126
-75.998840
155.997620
539.991760
127.998047
0.000000
619.990540
439.993286
75.998840
411.993713
619.990540
0.000000
155.997620
491.992493
207.996826
-23.999634
643.990173
307.995300
-127.998047
387.994080
619.990540
-127.998047
103.998413
539.991760
51.999207
-75.998840
591.990967
387.994080
23.999634
335.994873
515.992126
-207.996826
0.000000
439.993286
23.999634
-75.998840
539.991760
259.996033
-75.998840
335.994873
539.991760
-231.996460
75.998840
515.992126
0.000000
-155.997620
567.991333
283.995667
-51.999207
359.994507
515.992126
-359.994507
51.999207
411.993713
-23.999634
-283.995667
335.994873
127.998047
-259.996033
179.997253
307.995300
-307.995300
0.000000
463.992920
-127.998047
-283.995667
439.993286
127.998047
-283.995667
75.998840
207.996826
-439.993286
-179.997253
127.998047
-411.993713
-491.992493
179.997253
-51.999207
-439.993286
-127.998047
0.000000
-567.991333
-283.995667
127.998047
-283.995667
-463.992920
259.996033
-51.999207
-619.990540
-51.999207
231.996460
-515.992126
-155.997620
231.996460
-231.996460
-283.995667
335.994873
75.998840
-387.994080
-23.999634
155.997620
-515.992126
-231.996460
127.998047
-179.997253
-439.993286
207.996826
-23.999634
-359.994507
-23.999634
155.997620
-491.992493
-207.996826
75.998840
-307.995300
-439.993286
155.997620
-51.999207
-539.991760
-231.996460
23.999634
-723.988953
-439.993286
0.000000
-359.994507
-671.989746
103.998413
-103.998413
-671.989746
-231.996460
-51.999207
-695.989380
-491.992493
-51.999207
-411.993713
-643.990173
-75.998840
-283.995667
-671.989746
-179.997253
75.998840
-695.989380
-411.993713
-103.998413
-439.993286
-671.989746
51.999207
-207.996826
-643.990173
-307.995300
-75.998840
-775.988159
-491.992493
-75.998840
-463.992920
-619.990540
155.997620
-127.998047
-515.992126
-103.998413
51.999207
-671.989746
-411.993713
0.000000
-359.994507
-643.990173
51.999207
-155.997620
-619.990540
-231.996460
127.998047
-671.989746
-335.994873
51.999207
-307.995300
-539.991760
155.997620
-103.998413
-491.992493
-103.998413
155.997620
-619.990540
-307.995300
51.999207
-387.994080
-539.991760
103.998413
-127.998047
-515.992126
-127.998047
103.998413
-515.992126
-259.996033
179.997253
-231.996460
-307.995300
307.995300
23.999634
-359.994507
23.999634
179.997253
-567.991333
-259.996033
155.997620
-259.996033
-411.993713
231.996460
23.999634
-359.994507
0.000000
155.997620
-491.992493
-231.996460
179.997253
-207.996826
-439.993286
207.996826
103.998413
-283.995667
127.998047
359.994507
-259.996033
-75.998840
307.995300
-23.999634
-259.996033
411.993713
207.996826
-259.996033
23.999634
307.995300
-387.994080
-127.998047
283.995667
-51.999207
-231.996460
491.992493
231.996460
-207.996826
103.998413
359.994507
-359.994507
-155.997620
283.995667
-103.998413
-259.996033
411.993713
155.997620
-307.995300
103.998413
335.994873
-307.995300
-155.997620
307.995300
-103.998413
-307.995300
335.994873
23.999634
-283.995667
0.000000
283.995667
-463.992920
-283.995667
127.998047
-207.996826
-387.994080
283.995667
155.997620
-411.993713
-23.999634
127.998047
-463.992920
-259.996033
259.996033
-231.996460
-307.995300
387.994080
155.997620
-283.995667
0.000000
307.995300
-463.992920
-231.996460
127.998047
-231.996460
-491.992493
207.996826
0.000000
-463.992920
-23.999634
259.996033
-619.990540
-259.996033
103.998413
-231.996460
-411.993713
259.996033
23.999634
-411.993713
-51.999207
127.998047
-463.992920
-307.995300
75.998840
-259.996033
-439.993286
259.996033
127.998047
-259.996033
51.999207
283.995667
-307.995300
-259.996033
155.997620
-127.998047
-463.992920
307.995300
23.999634
-359.994507
-51.999207
207.996826
-491.992493
-231.996460
127.998047
-207.996826
-491.992493
307.995300
51.999207
-307.995300
0.000000
259.996033
-439.993286
-231.996460
207.996826
-207.996826
-307.995300
387.994080
155.997620
-207.996826
103.998413
335.994873
-359.994507
-127.998047
307.995300
-75.998840
-283.995667
335.994873
207.996826
-179.997253
127.998047
359.994507
-283.995667
-207.996826
307.995300
23.999634
-283.995667
387.994080
283.995667
-75.998840
155.997620
439.993286
-259.996033
-51.999207
387.994080
155.997620
-207.996826
463.992920
307.995300
-179.997253
231.996460
539.991760
-207.996826
-23.999634
411.993713
75.998840
-179.997253
567.991333
463.992920
75.998840
259.996033
567.991333
-103.998413
103.998413
515.992126
179.997253
23.999634
643.990173
491.992493
75.998840
307.995300
619.990540
-103.998413
75.998840
515.992126
155.997620
-51.999207
567.991333
491.992493
23.999634
359.994507
515.992126
-207.996826
0.000000
411.993713
75.998840
-103.998413
567.991333
387.994080
23.999634
307.995300
643.990173
-75.998840
103.998413
567.991333
207.996826
23.999634
567.991333
463.992920
75.998840
387.994080
591.990967
0.000000
75.998840
591.990967
283.995667
-23.999634
723.988953
539.991760
103.998413
335.994873
567.991333
-103.998413
103.998413
515.992126
207.996826
-51.999207
515.992126
259.996033
-103.998413
231.996460
411.993713
-231.996460
-75.998840
359.994507
75.998840
-155.997620
515.992126
359.994507
-75.998840
179.997253
411.993713
-231.996460
0.000000
359.994507
23.999634
-155.997620
463.992920
283.995667
0.000000
75.998840
411.993713
-283.995667
-103.998413
307.995300
-23.999634
-179.997253
439.993286
307.995300
-23.999634
207.996826
515.992126
-155.997620
23.999634
387.994080
103.998413
-127.998047
539.991760
283.995667
-51.999207
231.996460
439.993286
-179.997253
23.999634
283.995667
75.998840
-179.997253
539.991760
335.994873
-51.999207
307.995300
567.991333
-155.997620
51.999207
515.992126
179.997253
23.999634
723.988953
515.992126
51.999207
259.996033
515.992126
-231.996460
127.998047
491.992493
231.996460
-51.999207
643.990173
439.993286
23.999634
359.994507
695.989380
-51.999207
103.998413
515.992126
283.995667
51.999207
747.988586
539.991760
127.998047
359.994507
619.990540
-103.998413
103.998413
439.993286
207.996826
-23.999634
619.990540
411.993713
23.999634
335.994873
515.992126
-127.998047
103.998413
387.994080
231.996460
-51.999207
619.990540
515.992126
0.000000
283.995667
591.990967
-103.998413
127.998047
491.992493
283.995667
-51.999207
643.990173
515.992126
51.999207
335.994873
643.990173
-51.999207
179.997253
515.992126
231.996460
-23.999634
619.990540
359.994507
-23.999634
179.997253
567.991333
-231.996460
51.999207
411.993713
155.997620
-103.998413
539.991760
387.994080
-23.999634
231.996460
567.991333
-127.998047
23.999634
335.994873
155.997620
-155.997620
591.990967
491.992493
-51.999207
259.996033
515.992126
-231.996460
-75.998840
307.995300
155.997620
-127.998047
515.992126
439.993286
-75.998840
179.997253
491.992493
-155.997620
0.000000
335.994873
127.998047
-231.996460
463.992920
359.994507
23.999634
335.994873
515.992126
-231.996460
-75.998840
259.996033
127.998047
-207.996826
539.991760
359.994507
-103.998413
155.997620
491.992493
-259.996033
-103.998413
335.994873
103.998413
-179.997253
491.992493
439.993286
-103.998413
207.996826
387.994080
-307.995300
-23.999634
283.995667
51.999207
-127.998047
491.992493
335.994873
-155.997620
155.997620
463.992920
-179.997253
-23.999634
359.994507
127.998047
-155.997620
491.992493
231.996460
-155.997620
155.997620
359.994507
-231.996460
-23.999634
307.995300
-23.999634
-207.996826
411.993713
231.996460
-155.997620
51.999207
307.995300
-283.995667
-103.998413
231.996460
-51.999207
-231.996460
283.995667
307.995300
-179.997253
103.998413
411.993713
-307.995300
-127.998047
259.996033
51.999207
-259.996033
359.994507
283.995667
-207.996826
127.998047
283.995667
-359.994507
-179.997253
259.996033
0.000000
-283.995667
335.994873
231.996460
-283.995667
127.998047
307.995300
-231.996460
-207.996826
259.996033
23.999634
-231.996460
307.995300
231.996460
-179.997253
23.999634
283.995667
-283.995667
-207.996826
103.998413
-23.999634
-335.994873
283.995667
259.996033
-179.997253
-23.999634
231.996460
-335.994873
-207.996826
103.998413
-179.997253
-335.994873
231.996460
127.998047
-307.995300
0.000000
179.997253
-307.995300
-283.995667
103.998413
-207.996826
-387.994080
259.996033
51.999207
-307.995300
-75.998840
155.997620
-411.993713
-155.997620
179.997253
0.000000
-359.994507
179.997253
75.998840
-259.996033
-23.999634
127.998047
-463.992920
-283.995667
23.999634
-207.996826
-491.992493
103.998413
51.999207
-307.995300
-75.998840
179.997253
-463.992920
-359.994507
-23.999634
-207.996826
-387.994080
127.998047
51.999207
-283.995667
23.999634
283.995667
-439.993286
-283.995667
75.998840
-127.998047
-359.994507
155.997620
51.999207
-307.995300
-179.997253
155.997620
-491.992493
-231.996460
207.996826
-179.997253
-307.995300
307.995300
127.998047
-259.996033
23.999634
283.995667
-231.996460
-127.998047
283.995667
0.000000
-231.996460
335.994873
231.996460
-127.998047
51.999207
411.993713
-231.996460
0.000000
335.994873
103.998413
-231.996460
463.992920
307.995300
-103.998413
155.997620
387.994080
-75.998840
-23.999634
463.992920
179.997253
-103.998413
539.991760
335.994873
23.999634
283.995667
515.992126
-51.999207
103.998413
463.992920
231.996460
23.999634
539.991760
515.992126
75.998840
335.994873
591.990967
0.000000
103.998413
491.992493
207.996826
-23.999634
643.990173
439.993286
23.999634
259.996033
567.991333
-51.999207
0.000000
491.992493
283.995667
0.000000
539.991760
387.994080
51.999207
307.995300
567.991333
-51.999207
103.998413
491.992493
283.995667
0.000000
619.990540
515.992126
103.998413
283.995667
567.991333
-51.999207
127.998047
463.992920
231.996460
-51.999207
539.991760
539.991760
75.998840
259.996033
539.991760
75.998840
75.998840
463.992920
127.998047
-155.997620
463.992920
387.994080
-103.998413
127.998047
387.994080
-179.997253
-179.997253
231.996460
51.999207
-179.997253
491.992493
307.995300
-127.998047
155.997620
491.992493
-231.996460
-103.998413
283.995667
75.998840
-231.996460
359.994507
335.994873
-127.998047
103.998413
359.994507
-231.996460
-155.997620
283.995667
23.999634
-207.996826
335.994873
307.995300
-127.998047
103.998413
307.995300
-387.994080
-179.997253
155.997620
0.000000
-335.994873
283.995667
179.997253
-179.997253
23.999634
307.995300
-259.996033
-207.996826
283.995667
-75.998840
-359.994507
283.995667
179.997253
-231.996460
-23.999634
231.996460
-307.995300
-231.996460
127.998047
-127.998047
-411.993713
179.997253
75.998840
-259.996033
51.999207
283.995667
-307.995300
-259.996033
259.996033
-75.998840
-283.995667
207.996826
231.996460
-127.998047
75.998840
307.995300
-359.994507
-259.996033
103.998413
-51.999207
-359.994507
307.995300
127.998047
-179.997253
0.000000
231.996460
-359.994507
-259.996033
103.998413
-127.998047
-307.995300
359.994507
127.998047
-231.996460
-51.999207
207.996826
-387.994080
-283.995667
103.998413
-127.998047
-411.993713
179.997253
179.997253
-259.996033
-23.999634
207.996826
-207.996826
-231.996460
179.997253
-23.999634
-307.995300
283.995667
307.995300
-127.998047
127.998047
359.994507
-259.996033
-127.998047
259.996033
75.998840
-207.996826
411.993713
359.994507
0.000000
259.996033
491.992493
-23.999634
103.998413
439.993286
335.994873
0.000000
591.990967
539.991760
103.998413
307.995300
643.990173
0.000000
51.999207
567.991333
283.995667
23.999634
591.990967
515.992126
23.999634
359.994507
591.990967
51.999207
103.998413
539.991760
283.995667
23.999634
515.992126
411.993713
75.998840
231.996460
491.992493
-23.999634
0.000000
463.992920
127.998047
0.000000
567.991333
463.992920
155.997620
307.995300
491.992493
0.000000
0.000000
491.992493
259.996033
-23.999634
619.990540
515.992126
51.999207
307.995300
491.992493
-75.998840
0.000000
439.993286
179.997253
-51.999207
491.992493
439.993286
103.998413
283.995667
463.992920
-51.999207
23.999634
463.992920
155.997620
-51.999207
539.991760
411.993713
51.999207
207.996826
439.993286
-75.998840
-127.998047
307.995300
155.997620
-23.999634
387.994080
335.994873
-51.999207
127.998047
411.993713
-75.998840
0.000000
307.995300
179.997253
-155.997620
359.994507
359.994507
-103.998413
103.998413
387.994080
-259.996033
-155.997620
231.996460
-51.999207
-259.996033
335.994873
155.997620
-231.996460
0.000000
335.994873
-259.996033
-207.996826
207.996826
0.000000
-359.994507
259.996033
179.997253
-231.996460
-23.999634
283.995667
-259.996033
-259.996033
103.998413
-127.998047
-411.993713
179.997253
23.999634
-307.995300
-207.996826
127.998047
-463.992920
-335.994873
51.999207
-155.997620
-463.992920
75.998840
75.998840
-359.994507
-231.996460
155.997620
-439.993286
-463.992920
51.999207
-179.997253
-411.993713
155.997620
23.999634
-335.994873
-127.998047
207.996826
-387.994080
-335.994873
75.998840
-23.999634
-359.994507
283.995667
155.997620
-179.997253
-103.998413
231.996460
-259.996033
-259.996033
155.997620
-23.999634
-307.995300
259.996033
155.997620
-155.997620
-23.999634
307.995300
-307.995300
-127.998047
283.995667
0.000000
-259.996033
283.995667
335.994873
-103.998413
127.998047
463.992920
-127.998047
-127.998047
335.994873
51.999207
-155.997620
283.995667
259.996033
-75.998840
103.998413
411.993713
-155.997620
-75.998840
359.994507
75.998840
-75.998840
463.992920
439.993286
0.000000
231.996460
515.992126
-51.999207
23.999634
359.994507
259.996033
-103.998413
491.992493
515.992126
-103.998413
283.995667
619.990540
-23.999634
51.999207
491.992493
179.997253
-23.999634
591.990967
463.992920
-155.997620
359.994507
539.991760
0.000000
23.999634
439.993286
283.995667
-127.998047
567.991333
439.993286
-103.998413
259.996033
491.992493
-23.999634
0.000000
439.993286
207.996826
-75.998840
387.994080
439.993286
-103.998413
231.996460
591.990967
-51.999207
75.998840
335.994873
207.996826
-103.998413
539.991760
439.993286
-23.999634
231.996460
491.992493
-75.998840
0.000000
491.992493
155.997620
-103.998413
387.994080
307.995300
-231.996460
51.999207
463.992920
-103.998413
-127.998047
335.994873
127.998047
-179.997253
439.993286
283.995667
-259.996033
127.998047
411.993713
-75.998840
-179.997253
283.995667
23.999634
-259.996033
307.995300
335.994873
-259.996033
0.000000
307.995300
-283.995667
-231.996460
307.995300
0.000000
-335.994873
231.996460
283.995667
-335.994873
-75.998840
283.995667
-411.993713
-283.995667
259.996033
-75.998840
-359.994507
155.997620
155.997620
-411.993713
0.000000
307.995300
-259.996033
-259.996033
231.996460
-23.999634
-359.994507
179.997253
75.998840
-515.992126
-155.997620
283.995667
-359.994507
-231.996460
179.997253
-23.999634
-411.993713
207.996826
0.000000
-359.994507
-103.998413
207.996826
-335.994873
-359.994507
127.998047
-127.998047
-411.993713
179.997253
75.998840
-439.993286
-179.997253
207.996826
-387.994080
-335.994873
231.996460
-75.998840
-439.993286
103.998413
103.998413
-567.991333
-51.999207
179.997253
-387.994080
-283.995667
335.994873
-75.998840
-387.994080
103.998413
127.998047
-515.992126
-179.997253
231.996460
-359.994507
-259.996033
283.995667
0.000000
-231.996460
259.996033
307.995300
-307.995300
-23.999634
307.995300
-283.995667
-155.997620
359.994507
-127.998047
-207.996826
307.995300
283.995667
-259.996033
0.000000
411.993713
-231.996460
-155.997620
491.992493
51.999207
-207.996826
387.994080
335.994873
-283.995667
103.998413
439.993286
-155.997620
-75.998840
515.992126
127.998047
-155.997620
439.993286
283.995667
-179.997253
179.997253
387.994080
-75.998840
0.000000
539.991760
179.997253
-207.996826
387.994080
335.994873
-259.996033
179.997253
515.992126
-75.998840
-75.998840
539.991760
207.996826
-127.998047
439.993286
463.992920
-179.997253
127.998047
491.992493
-51.999207
-103.998413
515.992126
179.997253
-179.997253
387.994080
335.994873
-283.995667
51.999207
335.994873
-231.996460
-127.998047
463.992920
23.999634
-335.994873
179.997253
207.996826
-335.994873
-23.999634
283.995667
-259.996033
-179.997253
307.995300
23.999634
-283.995667
259.996033
127.998047
-359.994507
-51.999207
207.996826
-283.995667
-307.995300
307.995300
0.000000
-335.994873
207.996826
127.998047
-463.992920
-103.998413
283.995667
-359.994507
-307.995300
515.992126
-51.999207
-439.993286
51.999207
23.999634
-515.992126
-155.997620
75.998840
-463.992920
-387.994080
411.993713
-207.996826
-539.991760
0.000000
-51.999207
-695.989380
-359.994507
23.999634
-439.993286
-387.994080
359.994507
-179.997253
-567.991333
23.999634
-23.999634
-723.988953
-307.995300
75.998840
-439.993286
-387.994080
387.994080
-103.998413
-463.992920
127.998047
75.998840
-539.991760
-207.996826
51.999207
-439.993286
-491.992493
359.994507
-231.996460
-463.992920
-51.999207
0.000000
-619.990540
-259.996033
75.998840
-515.992126
-411.993713
307.995300
-155.997620
-491.992493
-75.998840
0.000000
-671.989746
-307.995300
0.000000
-491.992493
-567.991333
283.995667
-207.996826
-539.991760
-51.999207
-103.998413
-723.988953
-359.994507
51.999207
-491.992493
-463.992920
207.996826
-283.995667
-567.991333
-155.997620
-75.998840
-723.988953
-307.995300
23.999634
-463.992920
-515.992126
207.996826
-207.996826
-619.990540
-51.999207
-51.999207
-643.990173
-283.995667
103.998413
-491.992493
-567.991333
259.996033
-259.996033
-539.991760
0.000000
0.000000
-695.989380
-155.997620
207.996826
-411.993713
-335.994873
411.993713
-155.997620
-463.992920
23.999634
155.997620
-591.990967
-207.996826
155.997620
-259.996033
-307.995300
463.992920
-127.998047
-439.993286
155.997620
51.999207
-539.991760
-231.996460
155.997620
-359.994507
-359.994507
515.992126
0.000000
-411.993713
103.998413
127.998047
-567.991333
-103.998413
155.997620
-307.995300
-335.994873
539.991760
0.000000
-307.995300
231.996460
207.996826
-491.992493
-75.998840
307.995300
-259.996033
-231.996460
619.990540
-51.999207
-259.996033
179.997253
307.995300
-491.992493
-51.999207
307.995300
-155.997620
-179.997253
591.990967
51.999207
-231.996460
283.995667
359.994507
-411.993713
23.999634
359.994507
-207.996826
-207.996826
723.988953
155.997620
-259.996033
231.996460
283.995667
-411.993713
23.999634
335.994873
-231.996460
-207.996826
567.991333
75.998840
-259.996033
207.996826
359.994507
-359.994507
-23.999634
283.995667
-127.998047
-283.995667
591.990967
127.998047
-207.996826
283.995667
283.995667
-335.994873
-23.999634
359.994507
-103.998413
-179.997253
723.988953
155.997620
-127.998047
307.995300
335.994873
-359.994507
23.999634
335.994873
-259.996033
-207.996826
539.991760
103.998413
-207.996826
207.996826
359.994507
-387.994080
-23.999634
307.995300
-75.998840
-207.996826
695.989380
127.998047
-179.997253
259.996033
335.994873
-307.995300
23.999634
387.994080
-103.998413
-179.997253
619.990540
103.998413
-259.996033
283.995667
207.996826
-411.993713
-103.998413
231.996460
-259.996033
-307.995300
491.992493
75.998840
-359.994507
179.997253
155.997620
-411.993713
-179.997253
179.997253
-283.995667
-259.996033
463.992920
-51.999207
-387.994080
179.997253
259.996033
-439.993286
23.999634
259.996033
-259.996033
-307.995300
491.992493
0.000000
-335.994873
75.998840
179.997253
-539.991760
-155.997620
259.996033
-283.995667
-307.995300
463.992920
-23.999634
-463.992920
51.999207
75.998840
-643.990173
-179.997253
155.997620
-335.994873
-335.994873
439.993286
-75.998840
-411.993713
75.998840
51.999207
-619.990540
-259.996033
103.998413
-307.995300
-359.994507
567.991333
51.999207
-307.995300
103.998413
207.996826
-567.991333
-155.997620
155.997620
-335.994873
-307.995300
515.992126
-23.999634
-411.993713
23.999634
127.998047
-515.992126
-155.997620
179.997253
-283.995667
-387.994080
463.992920
-103.998413
-439.993286
23.999634
75.998840
-619.990540
-207.996826
155.997620
-283.995667
-307.995300
539.991760
75.998840
-259.996033
207.996826
207.996826
-539.991760
-51.999207
179.997253
-283.995667
-259.996033
567.991333
23.999634
-307.995300
179.997253
307.995300
-515.992126
0.000000
335.994873
-155.997620
-127.998047
619.990540
207.996826
-231.996460
387.994080
387.994080
-463.992920
51.999207
463.992920
-51.999207
-179.997253
747.988586
207.996826
-75.998840
439.993286
491.992493
-411.993713
127.998047
439.993286
-23.999634
-103.998413
775.988159
283.995667
-103.998413
463.992920
439.993286
-307.995300
283.995667
567.991333
103.998413
75.998840
875.986633
231.996460
-75.998840
491.992493
515.992126
-359.994507
259.996033
643.990173
127.998047
23.999634
823.987427
307.995300
-51.999207
491.992493
491.992493
-335.994873
231.996460
515.992126
23.999634
-51.999207
723.988953
307.995300
0.000000
359.994507
411.993713
-359.994507
75.998840
387.994080
-51.999207
-51.999207
671.989746
179.997253
-179.997253
359.994507
387.994080
-567.991333
75.998840
387.994080
-127.998047
-259.996033
591.990967
127.998047
-231.996460
179.997253
335.994873
-619.990540
0.000000
439.993286
-103.998413
-127.998047
591.990967
51.999207
-179.997253
335.994873
231.996460
-387.994080
23.999634
283.995667
-155.997620
-155.997620
539.991760
103.998413
-307.995300
259.996033
359.994507
-387.994080
23.999634
387.994080
-51.999207
-155.997620
643.990173
231.996460
-179.997253
359.994507
307.995300
-491.992493
0.000000
463.992920
-75.998840
-127.998047
591.990967
207.996826
-103.998413
283.995667
411.993713
-307.995300
127.998047
359.994507
-103.998413
-127.998047
671.989746
307.995300
-103.998413
387.994080
359.994507
-307.995300
127.998047
387.994080
-23.999634
-103.998413
591.990967
283.995667
-207.996826
335.994873
359.994507
-335.994873
75.998840
335.994873
-75.998840
-155.997620
463.992920
103.998413
-179.997253
283.995667
335.994873
-411.993713
-127.998047
207.996826
-307.995300
-283.995667
439.993286
75.998840
-307.995300
127.998047
207.996826
-567.991333
-207.996826
103.998413
-335.994873
-359.994507
231.996460
-75.998840
-439.993286
23.999634
155.997620
-591.990967
-207.996826
155.997620
-259.996033
-387.994080
231.996460
-75.998840
-463.992920
23.999634
155.997620
-539.991760
-259.996033
103.998413
-411.993713
-439.993286
283.995667
-103.998413
-463.992920
23.999634
103.998413
-463.992920
-179.997253
127.998047
-207.996826
-259.996033
411.993713
51.999207
-259.996033
207.996826
307.995300
-411.993713
-51.999207
231.996460
-155.997620
-259.996033
359.994507
179.997253
-207.996826
207.996826
307.995300
-283.995667
51.999207
411.993713
0.000000
23.999634
695.989380
387.994080
0.000000
515.992126
515.992126
-179.997253
231.996460
567.991333
51.999207
0.000000
619.990540
335.994873
-51.999207
491.992493
515.992126
0.000000
207.996826
695.989380
179.997253
207.996826
851.987000
643.990173
231.996460
723.988953
799.987793
75.998840
463.992920
643.990173
335.994873
307.995300
927.985840
591.990967
259.996033
775.988159
955.985413
335.994873
619.990540
875.986633
491.992493
387.994080
1083.983459
723.988953
439.993286
823.987427
927.985840
207.996826
591.990967
851.987000
491.992493
411.993713
1083.983459
747.988586
359.994507
775.988159
903.986206
335.994873
643.990173
903.986206
411.993713
283.995667
927.985840
567.991333
231.996460
723.988953
823.987427
179.997253
491.992493
823.987427
359.994507
231.996460
851.987000
539.991760
155.997620
619.990540
643.990173
23.999634
359.994507
671.989746
307.995300
179.997253
823.987427
515.992126
179.997253
515.992126
643.990173
-75.998840
231.996460
539.991760
155.997620
51.999207
695.989380
359.994507
51.999207
491.992493
591.990967
-155.997620
179.997253
515.992126
51.999207
-127.998047
567.991333
259.996033
-179.997253
359.994507
491.992493
-231.996460
155.997620
411.993713
-51.999207
-103.998413
567.991333
259.996033
-179.997253
307.995300
387.994080
-335.994873
51.999207
359.994507
-51.999207
-75.998840
491.992493
207.996826
-51.999207
359.994507
439.993286
-127.998047
155.997620
491.992493
75.998840
-23.999634
539.991760
307.995300
-103.998413
411.993713
567.991333
-103.998413
307.995300
591.990967
51.999207
-75.998840
695.989380
283.995667
-51.999207
387.994080
439.993286
-179.997253
231.996460
515.992126
127.998047
75.998840
643.990173
307.995300
-75.998840
387.994080
491.992493
-179.997253
127.998047
463.992920
-23.999634
0.000000
619.990540
259.996033
-23.999634
515.992126
539.991760
-75.998840
335.994873
539.991760
103.998413
51.999207
747.988586
387.994080
23.999634
539.991760
643.990173
-75.998840
307.995300
619.990540
207.996826
103.998413
723.988953
411.993713
51.999207
515.992126
619.990540
-75.998840
307.995300
619.990540
179.997253
103.998413
695.989380
335.994873
0.000000
439.993286
619.990540
-127.998047
155.997620
491.992493
103.998413
-23.999634
643.990173
283.995667
-51.999207
387.994080
411.993713
-231.996460
103.998413
411.993713
51.999207
-75.998840
567.991333
259.996033
-75.998840
359.994507
439.993286
-179.997253
103.998413
411.993713
-23.999634
-103.998413
491.992493
127.998047
-231.996460
179.997253
259.996033
-259.996033
-23.999634
259.996033
-179.997253
-179.997253
307.995300
23.999634
-335.994873
75.998840
155.997620
-491.992493
-179.997253
179.997253
-283.995667
-359.994507
259.996033
-75.998840
-463.992920
0.000000
103.998413
-491.992493
-207.996826
103.998413
-259.996033
-259.996033
231.996460
-51.999207
-387.994080
0.000000
23.999634
-463.992920
-207.996826
231.996460
-207.996826
-335.994873
307.995300
103.998413
-283.995667
127.998047
231.996460
-439.993286
-103.998413
231.996460
-179.997253
-307.995300
411.993713
155.997620
-231.996460
155.997620
335.994873
-359.994507
-75.998840
231.996460
-75.998840
-179.997253
463.992920
179.997253
-179.997253
207.996826
259.996033
-283.995667
-23.999634
411.993713
0.000000
-51.999207
567.991333
231.996460
-103.998413
411.993713
515.992126
-179.997253
75.998840
439.993286
-23.999634
-103.998413
411.993713
207.996826
-103.998413
207.996826
359.994507
-259.996033
51.999207
411.993713
-75.998840
-307.995300
411.993713
127.998047
-207.996826
307.995300
335.994873
-307.995300
23.999634
283.995667
-179.997253
-307.995300
259.996033
75.998840
-283.995667
75.998840
283.995667
-411.993713
-155.997620
207.996826
-207.996826
-387.994080
231.996460
0.000000
-387.994080
0.000000
127.998047
-539.991760
-155.997620
155.997620
-335.994873
-439.993286
179.997253
-75.998840
-411.993713
0.000000
103.998413
-619.990540
-231.996460
155.997620
-259.996033
-411.993713
207.996826
-51.999207
-439.993286
23.999634
155.997620
-515.992126
-179.997253
155.997620
-359.994507
-335.994873
207.996826
0.000000
-463.992920
-23.999634
23.999634
-591.990967
-283.995667
103.998413
-359.994507
-463.992920
231.996460
-103.998413
-439.993286
-51.999207
103.998413
-619.990540
-335.994873
-23.999634
-411.993713
-567.991333
75.998840
-127.998047
-491.992493
-155.997620
103.998413
-539.991760
-259.996033
127.998047
-387.994080
-463.992920
207.996826
-23.999634
-439.993286
0.000000
155.997620
-539.991760
-283.995667
75.998840
-359.994507
-463.992920
179.997253
-103.998413
-463.992920
0.000000
75.998840
-515.992126
-307.995300
103.998413
-283.995667
-463.992920
155.997620
-103.998413
-411.993713
51.999207
155.997620
-491.992493
-335.994873
51.999207
-411.993713
-515.992126
127.998047
-231.996460
-463.992920
-51.999207
-23.999634
-515.992126
-283.995667
51.999207
-359.994507
-539.991760
155.997620
-179.997253
-515.992126
-23.999634
0.000000
-619.990540
-307.995300
0.000000
-411.993713
-515.992126
103.998413
-155.997620
-567.991333
-103.998413
23.999634
-671.989746
-335.994873
23.999634
-387.994080
-591.990967
155.997620
-179.997253
-567.991333
-75.998840
0.000000
-671.989746
-231.996460
51.999207
-387.994080
-491.992493
75.998840
-103.998413
-491.992493
-23.999634
23.999634
-695.989380
-387.994080
-51.999207
-491.992493
-491.992493
103.998413
-155.997620
-463.992920
-179.997253
51.999207
-695.989380
-359.994507
-75.998840
-463.992920
-619.990540
155.997620
-75.998840
-539.991760
-207.996826
-75.998840
-671.989746
-387.994080
0.000000
-411.993713
-515.992126
127.998047
-127.998047
-439.993286
-127.998047
51.999207
-671.989746
-387.994080
-23.999634
-439.993286
-539.991760
75.998840
-207.996826
-591.990967
-179.997253
0.000000
-671.989746
-439.993286
-179.997253
-463.992920
-567.991333
51.999207
-127.998047
-491.992493
-75.998840
0.000000
-591.990967
-411.993713
-103.998413
-539.991760
-539.991760
0.000000
-231.996460
-539.991760
-207.996826
75.998840
-747.988586
-411.993713
0.000000
-439.993286
-491.992493
103.998413
-155.997620
-491.992493
-51.999207
23.999634
-619.990540
-359.994507
-51.999207
-359.994507
-463.992920
127.998047
-51.999207
-387.994080
-51.999207
155.997620
-567.991333
-259.996033
103.998413
-359.994507
-491.992493
155.997620
-103.998413
-515.992126
-179.997253
0.000000
-515.992126
-439.993286
23.999634
-463.992920
-463.992920
103.998413
-103.998413
-491.992493
-23.999634
51.999207
-463.992920
-231.996460
127.998047
-307.995300
-411.993713
207.996826
23.999634
-439.993286
-23.999634
155.997620
-539.991760
-307.995300
103.998413
-335.994873
-463.992920
179.997253
-75.998840
-359.994507
75.998840
155.997620
-463.992920
-207.996826
127.998047
-179.997253
-359.994507
335.994873
51.999207
-283.995667
75.998840
207.996826
-439.993286
-75.998840
259.996033
-23.999634
-207.996826
491.992493
231.996460
-23.999634
283.995667
411.993713
-207.996826
51.999207
439.993286
-23.999634
-103.998413
491.992493
307.995300
-75.998840
231.996460
539.991760
-103.998413
0.000000
387.994080
0.000000
-155.997620
463.992920
231.996460
-103.998413
259.996033
411.993713
-75.998840
51.999207
335.994873
-51.999207
-259.996033
491.992493
231.996460
-155.997620
75.998840
307.995300
-259.996033
0.000000
335.994873
-51.999207
-259.996033
411.993713
179.997253
-155.997620
207.996826
359.994507
-231.996460
0.000000
387.994080
23.999634
-155.997620
439.993286
307.995300
-127.998047
207.996826
387.994080
-207.996826
-51.999207
307.995300
-207.996826
-307.995300
307.995300
75.998840
-259.996033
155.997620
307.995300
-359.994507
-155.997620
207.996826
-127.998047
-307.995300
359.994507
51.999207
-231.996460
127.998047
179.997253
-463.992920
-231.996460
207.996826
-207.996826
-411.993713
155.997620
0.000000
-359.994507
-51.999207
207.996826
-411.993713
-207.996826
207.996826
-283.995667
-463.992920
207.996826
0.000000
-359.994507
0.000000
155.997620
-463.992920
-335.994873
103.998413
-307.995300
-491.992493
155.997620
23.999634
-359.994507
0.000000
103.998413
-491.992493
-283.995667
155.997620
-307.995300
-439.993286
231.996460
-75.998840
-387.994080
23.999634
231.996460
-411.993713
-207.996826
75.998840
-335.994873
-515.992126
103.998413
-51.999207
-463.992920
-51.999207
155.997620
-567.991333
-283.995667
75.998840
-259.996033
-463.992920
207.996826
23.999634
-411.993713
-75.998840
75.998840
-515.992126
-307.995300
-51.999207
-411.993713
-539.991760
127.998047
-155.997620
-439.993286
-155.997620
-23.999634
-567.991333
-387.994080
-51.999207
-359.994507
-567.991333
23.999634
-127.998047
-515.992126
-207.996826
51.999207
-671.989746
-439.993286
-103.998413
-387.994080
-567.991333
51.999207
-155.997620
-539.991760
-155.997620
-23.999634
-619.990540
-359.994507
-23.999634
-387.994080
-619.990540
51.999207
-179.997253
-539.991760
-179.997253
-51.999207
-619.990540
-515.992126
-127.998047
-387.994080
-567.991333
23.999634
-207.996826
-439.993286
-207.996826
23.999634
-591.990967
-439.993286
-75.998840
-359.994507
-567.991333
-23.999634
-51.999207
-515.992126
-155.997620
23.999634
-591.990967
-387.994080
-23.999634
-335.994873
-463.992920
155.997620
-23.999634
-515.992126
-51.999207
103.998413
-491.992493
-283.995667
23.999634
-283.995667
-411.993713
207.996826
-51.999207
-439.993286
-23.999634
179.997253
-491.992493
-283.995667
75.998840
-259.996033
-439.993286
127.998047
-23.999634
-411.993713
0.000000
127.998047
-463.992920
-335.994873
75.998840
-231.996460
-439.993286
103.998413
-75.998840
-387.994080
23.999634
179.997253
-515.992126
-283.995667
75.998840
-259.996033
-515.992126
259.996033
23.999634
-335.994873
0.000000
179.997253
-359.994507
-359.994507
103.998413
-179.997253
-411.993713
283.995667
23.999634
-259.996033
-23.999634
207.996826
-359.994507
-155.997620
231.996460
-75.998840
-231.996460
335.994873
179.997253
-155.997620
155.997620
335.994873
-335.994873
-75.998840
283.995667
-51.999207
-283.995667
359.994507
179.997253
-207.996826
103.998413
283.995667
-283.995667
0.000000
359.994507
51.999207
-155.997620
567.991333
259.996033
-155.997620
207.996826
491.992493
-207.996826
75.998840
335.994873
23.999634
-127.998047
515.992126
259.996033
-51.999207
283.995667
491.992493
-179.997253
103.998413
387.994080
75.998840
-75.998840
515.992126
259.996033
23.999634
259.996033
463.992920
-207.996826
0.000000
283.995667
23.999634
-155.997620
411.993713
259.996033
-127.998047
179.997253
439.993286
-307.995300
0.000000
231.996460
-23.999634
-231.996460
387.994080
179.997253
-23.999634
231.996460
359.994507
-231.996460
-103.998413
259.996033
127.998047
-207.996826
567.991333
307.995300
-127.998047
155.997620
359.994507
-307.995300
-127.998047
283.995667
-51.999207
-283.995667
439.993286
179.997253
-103.998413
103.998413
335.994873
-307.995300
-155.997620
179.997253
-51.999207
-231.996460
387.994080
207.996826
-259.996033
103.998413
335.994873
-335.994873
-75.998840
307.995300
51.999207
-179.997253
515.992126
179.997253
-179.997253
127.998047
439.993286
-283.995667
-51.999207
283.995667
23.999634
-127.998047
539.991760
259.996033
-75.998840
207.996826
335.994873
-207.996826
-51.999207
335.994873
23.999634
-155.997620
491.992493
283.995667
-155.997620
231.996460
335.994873
-283.995667
-103.998413
207.996826
-23.999634
-127.998047
411.993713
259.996033
-127.998047
207.996826
439.993286
-179.997253
-51.999207
387.994080
75.998840
-179.997253
539.991760
307.995300
-51.999207
207.996826
567.991333
-103.998413
103.998413
387.994080
127.998047
-103.998413
539.991760
335.994873
-51.999207
283.995667
491.992493
-103.998413
51.999207
411.993713
103.998413
-51.999207
515.992126
335.994873
-23.999634
411.993713
411.993713
-103.998413
103.998413
463.992920
155.997620
-51.999207
591.990967
335.994873
23.999634
283.995667
491.992493
-155.997620
23.999634
411.993713
179.997253
-127.998047
515.992126
307.995300
-23.999634
231.996460
567.991333
-51.999207
127.998047
463.992920
283.995667
-51.999207
643.990173
463.992920
103.998413
307.995300
539.991760
-51.999207
23.999634
411.993713
155.997620
-127.998047
567.991333
359.994507
-75.998840
259.996033
491.992493
-51.999207
0.000000
439.993286
179.997253
-103.998413
515.992126
359.994507
-127.998047
231.996460
515.992126
-259.996033
-51.999207
387.994080
-23.999634
-127.998047
439.993286
283.995667
-75.998840
179.997253
439.993286
-259.996033
-75.998840
335.994873
23.999634
-207.996826
463.992920
207.996826
-155.997620
103.998413
283.995667
-283.995667
-127.998047
231.996460
0.000000
-307.995300
411.993713
155.997620
-179.997253
103.998413
335.994873
-335.994873
-75.998840
179.997253
-103.998413
-307.995300
179.997253
103.998413
-307.995300
-51.999207
231.996460
-439.993286
-335.994873
23.999634
-259.996033
-515.992126
127.998047
-23.999634
-411.993713
-103.998413
179.997253
-387.994080
-207.996826
75.998840
-179.997253
-387.994080
75.998840
75.998840
-335.994873
-103.998413
155.997620
-463.992920
-259.996033
75.998840
-155.997620
-439.993286
179.997253
-51.999207
-411.993713
-127.998047
75.998840
-463.992920
-387.994080
23.999634
-259.996033
-515.992126
51.999207
-23.999634
-515.992126
-179.997253
51.999207
-463.992920
-335.994873
-23.999634
-207.996826
-515.992126
155.997620
0.000000
-439.993286
-103.998413
75.998840
-539.991760
-283.995667
23.999634
-179.997253
-411.993713
207.996826
127.998047
-283.995667
-75.998840
259.996033
-359.994507
-179.997253
179.997253
-51.999207
-307.995300
307.995300
179.997253
-155.997620
0.000000
283.995667
-307.995300
-103.998413
231.996460
-23.999634
-283.995667
307.995300
231.996460
-207.996826
23.999634
307.995300
-283.995667
-179.997253
179.997253
-23.999634
-259.996033
411.993713
179.997253
-127.998047
103.998413
207.996826
-283.995667
-179.997253
231.996460
-51.999207
-335.994873
335.994873
103.998413
-259.996033
-23.999634
307.995300
-411.993713
-155.997620
179.997253
-103.998413
-387.994080
283.995667
155.997620
-307.995300
-23.999634
231.996460
-359.994507
-179.997253
231.996460
-75.998840
-307.995300
411.993713
283.995667
-231.996460
-51.999207
307.995300
-387.994080
-179.997253
179.997253
-75.998840
-335.994873
207.996826
155.997620
-283.995667
51.999207
307.995300
-231.996460
-155.997620
335.994873
23.999634
-283.995667
283.995667
127.998047
-259.996033
51.999207
307.995300
-307.995300
-103.998413
231.996460
-23.999634
-411.993713
207.996826
155.997620
-127.998047
51.999207
307.995300
-307.995300
-207.996826
231.996460
-23.999634
-283.995667
335.994873
231.996460
-127.998047
0.000000
335.994873
-307.995300
-127.998047
259.996033
-23.999634
-307.995300
259.996033
231.996460
-259.996033
0.000000
335.994873
-387.994080
-207.996826
207.996826
-51.999207
-283.995667
231.996460
155.997620
-259.996033
51.999207
307.995300
-307.995300
-155.997620
231.996460
-51.999207
-307.995300
259.996033
179.997253
-283.995667
-23.999634
259.996033
-359.994507
-179.997253
179.997253
-51.999207
-283.995667
283.995667
207.996826
-179.997253
0.000000
307.995300
-307.995300
-155.997620
207.996826
0.000000
-359.994507
335.994873
75.998840
-259.996033
0.000000
259.996033
-283.995667
-259.996033
127.998047
0.000000
-283.995667
231.996460
75.998840
-259.996033
-127.998047
179.997253
-335.994873
-259.996033
155.997620
-103.998413
-335.994873
259.996033
155.997620
-283.995667
75.998840
231.996460
-335.994873
-283.995667
179.997253
-51.999207
-307.995300
179.997253
179.997253
-179.997253
23.999634
411.993713
-259.996033
-179.997253
259.996033
-51.999207
-283.995667
335.994873
307.995300
-179.997253
51.999207
335.994873
-307.995300
-259.996033
231.996460
-51.999207
-439.993286
259.996033
127.998047
-259.996033
0.000000
307.995300
-335.994873
-155.997620
207.996826
23.999634
-359.994507
259.996033
231.996460
-207.996826
23.999634
283.995667
-307.995300
-231.996460
231.996460
23.999634
-283.995667
307.995300
127.998047
-179.997253
-23.999634
307.995300
-359.994507
-231.996460
179.997253
-127.998047
-387.994080
207.996826
75.998840
-307.995300
-127.998047
231.996460
-439.993286
-259.996033
207.996826
51.999207
-307.995300
307.995300
207.996826
-127.998047
23.999634
335.994873
-179.997253
-179.997253
283.995667
103.998413
-231.996460
335.994873
307.995300
-75.998840
155.997620
359.994507
-259.996033
-127.998047
307.995300
51.999207
-179.997253
359.994507
359.994507
-103.998413
155.997620
439.993286
-259.996033
-51.999207
283.995667
179.997253
-179.997253
387.994080
283.995667
-179.997253
51.999207
335.994873
-231.996460
-103.998413
179.997253
75.998840
-259.996033
359.994507
283.995667
-75.998840
75.998840
491.992493
-75.998840
-51.999207
387.994080
103.998413
-103.998413
387.994080
359.994507
-75.998840
103.998413
491.992493
-103.998413
-103.998413
307.995300
155.997620
-259.996033
463.992920
411.993713
-23.999634
179.997253
491.992493
-103.998413
-51.999207
359.994507
259.996033
-51.999207
539.991760
515.992126
51.999207
283.995667
643.990173
23.999634
75.998840
463.992920
307.995300
-23.999634
539.991760
619.990540
179.997253
411.993713
671.989746
23.999634
103.998413
439.993286
259.996033
-75.998840
411.993713
491.992493
103.998413
179.997253
567.991333
-23.999634
0.000000
463.992920
283.995667
-103.998413
643.990173
491.992493
51.999207
283.995667
539.991760
-51.999207
-51.999207
259.996033
155.997620
-207.996826
387.994080
335.994873
-23.999634
75.998840
439.993286
-231.996460
-179.997253
155.997620
0.000000
-283.995667
307.995300
207.996826
-127.998047
-23.999634
283.995667
-359.994507
-335.994873
127.998047
-75.998840
-387.994080
155.997620
51.999207
-283.995667
-155.997620
207.996826
-439.993286
-335.994873
-23.999634
-127.998047
-463.992920
103.998413
75.998840
-283.995667
-127.998047
179.997253
-387.994080
-335.994873
23.999634
-127.998047
-539.991760
51.999207
23.999634
-387.994080
-127.998047
103.998413
-539.991760
-387.994080
-103.998413
-283.995667
-567.991333
-51.999207
-103.998413
-491.992493
-231.996460
51.999207
-491.992493
-411.993713
0.000000
-231.996460
-539.991760
23.999634
-75.998840
-411.993713
-283.995667
51.999207
-411.993713
-411.993713
-51.999207
-179.997253
-539.991760
23.999634
-51.999207
-411.993713
-231.996460
127.998047
-491.992493
-387.994080
-127.998047
-207.996826
-439.993286
51.999207
51.999207
-411.993713
-155.997620
75.998840
-491.992493
-439.993286
-75.998840
-179.997253
-539.991760
103.998413
-75.998840
-335.994873
-259.996033
103.998413
-411.993713
-387.994080
0.000000
-179.997253
-439.993286
155.997620
51.999207
-335.994873
-179.997253
127.998047
-387.994080
-283.995667
-51.999207
-127.998047
-359.994507
127.998047
103.998413
-335.994873
-103.998413
155.997620
-335.994873
-307.995300
103.998413
-51.999207
-387.994080
179.997253
103.998413
-231.996460
-179.997253
231.996460
-307.995300
-387.994080
0.000000
-103.998413
-439.993286
179.997253
127.998047
-155.997620
-75.998840
231.996460
-283.995667
-259.996033
103.998413
-75.998840
-359.994507
179.997253
155.997620
-231.996460
-75.998840
231.996460
-231.996460
-359.994507
127.998047
-51.999207
-359.994507
231.996460
179.997253
-155.997620
0.000000
307.995300
-231.996460
-207.996826
179.997253
0.000000
-307.995300
231.996460
283.995667
-179.997253
0.000000
231.996460
-307.995300
-127.998047
155.997620
0.000000
-387.994080
231.996460
283.995667
-179.997253
-51.999207
207.996826
-259.996033
-155.997620
127.998047
51.999207
-231.996460
335.994873
307.995300
-103.998413
23.999634
359.994507
-259.996033
-207.996826
259.996033
-51.999207
-307.995300
259.996033
179.997253
-155.997620
23.999634
283.995667
-259.996033
-231.996460
155.997620
-23.999634
-259.996033
231.996460
259.996033
-127.998047
23.999634
335.994873
-179.997253
-207.996826
207.996826
75.998840
-231.996460
259.996033
231.996460
-231.996460
51.999207
335.994873
-51.999207
-127.998047
231.996460
103.998413
-155.997620
335.994873
359.994507
-103.998413
-23.999634
307.995300
-179.997253
-127.998047
259.996033
179.997253
-155.997620
207.996826
283.995667
-51.999207
103.998413
359.994507
-103.998413
-103.998413
283.995667
75.998840
-179.997253
307.995300
335.994873
0.000000
127.998047
359.994507
-75.998840
-103.998413
307.995300
179.997253
-127.998047
335.994873
387.994080
0.000000
179.997253
463.992920
-23.999634
-23.999634
335.994873
259.996033
-179.997253
439.993286
463.992920
-51.999207
23.999634
359.994507
-127.998047
-75.998840
259.996033
127.998047
-231.996460
335.994873
387.994080
-103.998413
103.998413
307.995300
-231.996460
-155.997620
207.996826
179.997253
-231.996460
307.995300
283.995667
-51.999207
23.999634
387.994080
-231.996460
-283.995667
155.997620
127.998047
-283.995667
231.996460
179.997253
-51.999207
51.999207
307.995300
-75.998840
-283.995667
75.998840
0.000000
-335.994873
259.996033
283.995667
-75.998840
103.998413
387.994080
-103.998413
-155.997620
155.997620
51.999207
-283.995667
335.994873
283.995667
-179.997253
51.999207
283.995667
-179.997253
-155.997620
179.997253
51.999207
-231.996460
179.997253
127.998047
-127.998047
-51.999207
359.994507
-259.996033
-231.996460
127.998047
75.998840
-283.995667
231.996460
155.997620
-155.997620
-75.998840
335.994873
-207.996826
-283.995667
155.997620
51.999207
-359.994507
155.997620
231.996460
-231.996460
-51.999207
283.995667
-259.996033
-335.994873
51.999207
0.000000
-359.994507
127.998047
103.998413
-283.995667
-103.998413
207.996826
-283.995667
-411.993713
75.998840
0.000000
-439.993286
103.998413
179.997253
-103.998413
23.999634
307.995300
-207.996826
-231.996460
103.998413
51.999207
-307.995300
207.996826
231.996460
-127.998047
51.999207
259.996033
-207.996826
-259.996033
51.999207
23.999634
-283.995667
179.997253
179.997253
-155.997620
-51.999207
231.996460
-259.996033
-283.995667
-23.999634
-51.999207
-439.993286
51.999207
75.998840
-231.996460
-155.997620
207.996826
-307.995300
-307.995300
0.000000
-51.999207
-411.993713
51.999207
103.998413
-283.995667
-231.996460
103.998413
-283.995667
-307.995300
103.998413
-23.999634
-411.993713
207.996826
207.996826
-335.994873
-127.998047
207.996826
-335.994873
-387.994080
207.996826
-75.998840
-411.993713
75.998840
231.996460
-231.996460
-179.997253
259.996033
-307.995300
-359.994507
259.996033
23.999634
-387.994080
155.997620
231.996460
-335.994873
0.000000
359.994507
-155.997620
-259.996033
359.994507
103.998413
-127.998047
259.996033
259.996033
-283.995667
0.000000
283.995667
-179.997253
-207.996826
359.994507
155.997620
-179.997253
259.996033
387.994080
-231.996460
-23.999634
359.994507
-127.998047
-127.998047
491.992493
231.996460
-103.998413
359.994507
259.996033
-207.996826
51.999207
439.993286
-155.997620
-51.999207
567.991333
155.997620
-127.998047
387.994080
307.995300
-259.996033
0.000000
359.994507
-51.999207
-127.998047
463.992920
231.996460
-207.996826
283.995667
307.995300
-259.996033
-51.999207
335.994873
-75.998840
-231.996460
411.993713
103.998413
-259.996033
207.996826
335.994873
-283.995667
0.000000
359.994507
-127.998047
-231.996460
567.991333
75.998840
-259.996033
231.996460
179.997253
-439.993286
-103.998413
231.996460
-231.996460
-283.995667
539.991760
51.999207
-307.995300
207.996826
259.996033
-411.993713
-103.998413
283.995667
-307.995300
-307.995300
463.992920
0.000000
-411.993713
75.998840
179.997253
-439.993286
-207.996826
179.997253
-359.994507
-411.993713
359.994507
-75.998840
-411.993713
0.000000
103.998413
-567.991333
-231.996460
23.999634
-411.993713
-411.993713
411.993713
-103.998413
-439.993286
0.000000
103.998413
-463.992920
-207.996826
75.998840
-335.994873
-387.994080
463.992920
-23.999634
-439.993286
51.999207
127.998047
-591.990967
-179.997253
75.998840
-259.996033
-387.994080
387.994080
23.999634
-439.993286
0.000000
127.998047
-463.992920
-179.997253
155.997620
-231.996460
-335.994873
387.994080
-75.998840
-411.993713
75.998840
155.997620
-491.992493
-207.996826
127.998047
-283.995667
-359.994507
439.993286
-23.999634
-283.995667
127.998047
259.996033
-335.994873
-103.998413
307.995300
-155.997620
-231.996460
643.990173
127.998047
-231.996460
179.997253
259.996033
-411.993713
-51.999207
259.996033
-179.997253
-231.996460
643.990173
127.998047
-207.996826
231.996460
335.994873
-619.990540
-51.999207
359.994507
-23.999634
-207.996826
567.991333
179.997253
-155.997620
307.995300
359.994507
-463.992920
-23.999634
411.993713
-75.998840
-259.996033
643.990173
259.996033
-179.997253
231.996460
335.994873
-439.993286
51.999207
359.994507
-23.999634
-259.996033
539.991760
127.998047
-259.996033
283.995667
359.994507
-335.994873
23.999634
283.995667
-75.998840
-207.996826
539.991760
127.998047
-259.996033
307.995300
259.996033
-387.994080
-23.999634
259.996033
-155.997620
-155.997620
387.994080
127.998047
-179.997253
231.996460
335.994873
-283.995667
0.000000
283.995667
-103.998413
-231.996460
359.994507
103.998413
-283.995667
75.998840
307.995300
-387.994080
-127.998047
207.996826
-155.997620
-259.996033
359.994507
51.999207
-335.994873
23.999634
259.996033
-439.993286
-179.997253
155.997620
-155.997620
-307.995300
259.996033
23.999634
-335.994873
51.999207
207.996826
-439.993286
-155.997620
103.998413
-179.997253
-335.994873
307.995300
51.999207
-283.995667
127.998047
207.996826
-387.994080
-207.996826
155.997620
-231.996460
-411.993713
231.996460
23.999634
-387.994080
75.998840
127.998047
-411.993713
-179.997253
127.998047
-231.996460
-411.993713
307.995300
75.998840
-359.994507
-23.999634
179.997253
-411.993713
-155.997620
127.998047
-155.997620
-359.994507
207.996826
103.998413
-307.995300
103.998413
231.996460
-411.993713
-179.997253
127.998047
-259.996033
-335.994873
335.994873
0.000000
-307.995300
0.000000
155.997620
-439.993286
-179.997253
259.996033
-103.998413
-283.995667
335.994873
127.998047
-259.996033
103.998413
307.995300
-335.994873
-75.998840
179.997253
-155.997620
-283.995667
359.994507
155.997620
-283.995667
155.997620
335.994873
-359.994507
-75.998840
231.996460
-75.998840
-283.995667
307.995300
103.998413
-335.994873
127.998047
335.994873
-307.995300
-51.999207
231.996460
-75.998840
-231.996460
439.993286
155.997620
-179.997253
259.996033
307.995300
-207.996826
-103.998413
359.994507
-75.998840
-231.996460
387.994080
179.997253
-179.997253
75.998840
387.994080
-259.996033
-23.999634
387.994080
51.999207
-127.998047
491.992493
259.996033
-103.998413
179.997253
439.993286
-179.997253
-23.999634
359.994507
23.999634
-103.998413
515.992126
307.995300
-103.998413
259.996033
491.992493
-155.997620
51.999207
463.992920
155.997620
-51.999207
515.992126
359.994507
-23.999634
359.994507
567.991333
-75.998840
155.997620
515.992126
207.996826
-51.999207
567.991333
463.992920
103.998413
491.992493
671.989746
103.998413
231.996460
671.989746
231.996460
103.998413
747.988586
567.991333
207.996826
463.992920
643.990173
51.999207
335.994873
643.990173
335.994873
155.997620
775.988159
671.989746
127.998047
619.990540
695.989380
179.997253
335.994873
643.990173
307.995300
103.998413
747.988586
619.990540
179.997253
567.991333
619.990540
0.000000
207.996826
539.991760
207.996826
51.999207
619.990540
491.992493
-23.999634
283.995667
463.992920
-207.996826
51.999207
359.994507
127.998047
-179.997253
515.992126
307.995300
-51.999207
207.996826
491.992493
-127.998047
0.000000
411.993713
23.999634
-231.996460
439.993286
259.996033
-75.998840
179.997253
359.994507
-259.996033
0.000000
307.995300
51.999207
-155.997620
439.993286
231.996460
-75.998840
75.998840
307.995300
-283.995667
-23.999634
259.996033
-23.999634
-207.996826
515.992126
411.993713
-155.997620
155.997620
387.994080
-207.996826
51.999207
335.994873
0.000000
-179.997253
463.992920
335.994873
-103.998413
179.997253
411.993713
-103.998413
0.000000
463.992920
103.998413
-75.998840
591.990967
387.994080
-51.999207
207.996826
491.992493
-179.997253
0.000000
439.993286
23.999634
-179.997253
387.994080
307.995300
-23.999634
283.995667
439.993286
-155.997620
75.998840
283.995667
103.998413
-231.996460
515.992126
307.995300
0.000000
231.996460
359.994507
-231.996460
0.000000
359.994507
75.998840
-127.998047
463.992920
307.995300
-103.998413
127.998047
411.993713
-231.996460
-51.999207
283.995667
-23.999634
-231.996460
307.995300
179.997253
-103.998413
75.998840
359.994507
-207.996826
-127.998047
231.996460
0.000000
-283.995667
335.994873
259.996033
-127.998047
23.999634
387.994080
-307.995300
-155.997620
335.994873
-51.999207
-283.995667
283.995667
179.997253
-155.997620
75.998840
307.995300
-283.995667
-103.998413
207.996826
-23.999634
-307.995300
359.994507
155.997620
-127.998047
75.998840
335.994873
-259.996033
-155.997620
155.997620
0.000000
-283.995667
307.995300
127.998047
-179.997253
51.999207
283.995667
-259.996033
-103.998413
207.996826
0.000000
-335.994873
335.994873
207.996826
-231.996460
103.998413
307.995300
-283.995667
-155.997620
179.997253
23.999634
-307.995300
359.994507
231.996460
-155.997620
103.998413
439.993286
-307.995300
-103.998413
259.996033
103.998413
-179.997253
335.994873
283.995667
-155.997620
127.998047
387.994080
-283.995667
-155.997620
259.996033
0.000000
-231.996460
335.994873
231.996460
-179.997253
75.998840
259.996033
-259.996033
-231.996460
51.999207
-51.999207
-283.995667
283.995667
231.996460
-179.997253
23.999634
283.995667
-231.996460
-179.997253
155.997620
-51.999207
-335.994873
283.995667
155.997620
-231.996460
103.998413
411.993713
-207.996826
-103.998413
283.995667
0.000000
-259.996033
359.994507
207.996826
-103.998413
23.999634
359.994507
-207.996826
-103.998413
283.995667
51.999207
-207.996826
387.994080
231.996460
-155.997620
75.998840
307.995300
-207.996826
-23.999634
283.995667
23.999634
-155.997620
283.995667
179.997253
-179.997253
23.999634
307.995300
-207.996826
-75.998840
231.996460
75.998840
-335.994873
307.995300
259.996033
-127.998047
75.998840
283.995667
-179.997253
-51.999207
307.995300
127.998047
-127.998047
387.994080
335.994873
-75.998840
179.997253
463.992920
-155.997620
-23.999634
307.995300
127.998047
-231.996460
335.994873
283.995667
-127.998047
179.997253
359.994507
-127.998047
-75.998840
307.995300
179.997253
-75.998840
491.992493
359.994507
-75.998840
231.996460
463.992920
-75.998840
0.000000
335.994873
179.997253
-155.997620
463.992920
411.993713
-23.999634
127.998047
411.993713
-127.998047
-75.998840
335.994873
127.998047
-179.997253
359.994507
335.994873
-75.998840
155.997620
439.993286
-127.998047
-23.999634
283.995667
103.998413
-75.998840
411.993713
359.994507
-155.997620
155.997620
439.993286
-231.996460
-75.998840
283.995667
75.998840
-179.997253
283.995667
231.996460
-127.998047
23.999634
335.994873
-179.997253
-155.997620
259.996033
23.999634
-207.996826
335.994873
283.995667
-103.998413
0.000000
359.994507
-231.996460
-155.997620
207.996826
-23.999634
-307.995300
259.996033
179.997253
-179.997253
23.999634
283.995667
-259.996033
-127.998047
207.996826
23.999634
-231.996460
335.994873
207.996826
-75.998840
103.998413
439.993286
-155.997620
-51.999207
283.995667
127.998047
-179.997253
359.994507
387.994080
0.000000
179.997253
463.992920
-127.998047
0.000000
335.994873
207.996826
-127.998047
411.993713
359.994507
0.000000
75.998840
463.992920
-179.997253
-127.998047
231.996460
127.998047
-207.996826
335.994873
335.994873
23.999634
179.997253
439.993286
-103.998413
23.999634
307.995300
155.997620
-23.999634
439.993286
463.992920
75.998840
179.997253
619.990540
-75.998840
23.999634
335.994873
207.996826
-51.999207
439.993286
387.994080
23.999634
127.998047
491.992493
-23.999634
75.998840
387.994080
231.996460
0.000000
567.991333
463.992920
103.998413
207.996826
567.991333
23.999634
0.000000
387.994080
179.997253
-155.997620
491.992493
387.994080
127.998047
179.997253
591.990967
51.999207
-23.999634
387.994080
259.996033
-75.998840
463.992920
439.993286
0.000000
103.998413
491.992493
-155.997620
-179.997253
259.996033
155.997620
-103.998413
387.994080
335.994873
-51.999207
103.998413
359.994507
-155.997620
-103.998413
307.995300
207.996826
-103.998413
387.994080
359.994507
23.999634
75.998840
491.992493
-23.999634
0.000000
307.995300
259.996033
-75.998840
335.994873
387.994080
-23.999634
103.998413
491.992493
-75.998840
-23.999634
283.995667
335.994873
-127.998047
491.992493
463.992920
23.999634
103.998413
539.991760
23.999634
-23.999634
335.994873
335.994873
-75.998840
411.993713
387.994080
127.998047
155.997620
463.992920
-51.999207
-51.999207
231.996460
179.997253
-75.998840
387.994080
387.994080
-23.999634
127.998047
439.993286
0.000000
-127.998047
335.994873
127.998047
-103.998413
335.994873
335.994873
0.000000
103.998413
439.993286
-51.999207
-51.999207
231.996460
127.998047
-103.998413
359.994507
335.994873
0.000000
23.999634
387.994080
-51.999207
-179.997253
179.997253
179.997253
-307.995300
207.996826
231.996460
-179.997253
-23.999634
307.995300
-207.996826
-207.996826
103.998413
23.999634
-335.994873
155.997620
155.997620
-179.997253
-75.998840
283.995667
-207.996826
-283.995667
51.999207
-51.999207
-411.993713
207.996826
127.998047
-231.996460
-103.998413
307.995300
-179.997253
-231.996460
23.999634
0.000000
-439.993286
155.997620
155.997620
-155.997620
0.000000
259.996033
-127.998047
-283.995667
155.997620
0.000000
-207.996826
155.997620
259.996033
-103.998413
-75.998840
283.995667
-207.996826
-231.996460
179.997253
127.998047
-231.996460
283.995667
335.994873
-103.998413
-75.998840
307.995300
-127.998047
-155.997620
207.996826
179.997253
-231.996460
231.996460
259.996033
-75.998840
51.999207
231.996460
-155.997620
-127.998047
231.996460
103.998413
-231.996460
179.997253
359.994507
0.000000
0.000000
335.994873
-155.997620
-179.997253
231.996460
179.997253
-231.996460
283.995667
335.994873
51.999207
23.999634
439.993286
-155.997620
-155.997620
179.997253
127.998047
-231.996460
127.998047
283.995667
-103.998413
51.999207
359.994507
-127.998047
-207.996826
155.997620
75.998840
-283.995667
207.996826
127.998047
-127.998047
-51.999207
307.995300
-207.996826
-207.996826
127.998047
103.998413
-259.996033
155.997620
207.996826
-75.998840
-103.998413
259.996033
-179.997253
-259.996033
75.998840
51.999207
-335.994873
51.999207
231.996460
-259.996033
-179.997253
155.997620
-207.996826
-359.994507
75.998840
-103.998413
-515.992126
23.999634
0.000000
-439.993286
-207.996826
75.998840
-335.994873
-491.992493
23.999634
-127.998047
-591.990967
-127.998047
103.998413
-463.992920
-283.995667
75.998840
-359.994507
-463.992920
155.997620
-103.998413
-491.992493
0.000000
0.000000
-539.991760
-335.994873
51.999207
-335.994873
-439.993286
103.998413
-155.997620
-515.992126
-103.998413
51.999207
-491.992493
-439.993286
0.000000
-439.993286
-515.992126
-75.998840
-283.995667
-539.991760
-207.996826
-75.998840
-643.990173
-359.994507
-103.998413
-463.992920
-567.991333
0.000000
-259.996033
-591.990967
-259.996033
-127.998047
-591.990967
-439.993286
0.000000
-463.992920
-491.992493
179.997253
-283.995667
-491.992493
-155.997620
-75.998840
-643.990173
-359.994507
-23.999634
-463.992920
-515.992126
179.997253
-127.998047
-463.992920
-103.998413
51.999207
-491.992493
-283.995667
51.999207
-335.994873
-515.992126
283.995667
-51.999207
-491.992493
-103.998413
75.998840
-491.992493
-259.996033
127.998047
-259.996033
-411.993713
411.993713
-23.999634
-335.994873
23.999634
155.997620
-283.995667
-179.997253
207.996826
-127.998047
-283.995667
463.992920
0.000000
-307.995300
0.000000
259.996033
-439.993286
-127.998047
307.995300
-231.996460
-259.996033
491.992493
155.997620
-127.998047
231.996460
335.994873
-591.990967
-103.998413
207.996826
-179.997253
-387.994080
515.992126
155.997620
-283.995667
75.998840
283.995667
-515.992126
-23.999634
307.995300
-127.998047
-127.998047
539.991760
75.998840
-283.995667
179.997253
335.994873
-283.995667
-103.998413
231.996460
-51.999207
-259.996033
439.993286
127.998047
-207.996826
207.996826
359.994507
-283.995667
-51.999207
283.995667
-103.998413
-231.996460
387.994080
179.997253
-179.997253
155.997620
335.994873
-259.996033
-75.998840
335.994873
-75.998840
-231.996460
359.994507
127.998047
-335.994873
23.999634
179.997253
-387.994080
-207.996826
75.998840
-155.997620
-359.994507
307.995300
-51.999207
-307.995300
-75.998840
179.997253
-539.991760
-335.994873
51.999207
-231.996460
-387.994080
231.996460
-51.999207
-411.993713
-75.998840
75.998840
-539.991760
-283.995667
103.998413
-259.996033
-411.993713
127.998047
-51.999207
-387.994080
-155.997620
51.999207
-567.991333
-307.995300
-51.999207
-259.996033
-439.993286
23.999634
-127.998047
-491.992493
-259.996033
-23.999634
-695.989380
-515.992126
-75.998840
-411.993713
-567.991333
51.999207
-155.997620
-463.992920
-179.997253
0.000000
-619.990540
-359.994507
51.999207
-515.992126
-643.990173
51.999207
-207.996826
-643.990173
-231.996460
0.000000
-619.990540
-463.992920
-75.998840
-439.993286
-591.990967
-23.999634
-103.998413
-515.992126
-155.997620
75.998840
-619.990540
-439.993286
0.000000
-283.995667
-491.992493
23.999634
-179.997253
-411.993713
-127.998047
103.998413
-491.992493
-335.994873
-23.999634
-283.995667
-463.992920
179.997253
-51.999207
-387.994080
-103.998413
75.998840
-439.993286
-307.995300
51.999207
-259.996033
-491.992493
155.997620
23.999634
-335.994873
-51.999207
179.997253
-411.993713
-231.996460
103.998413
-103.998413
-335.994873
283.995667
51.999207
-259.996033
-23.999634
307.995300
-387.994080
-155.997620
179.997253
-127.998047
-231.996460
411.993713
207.996826
-127.998047
75.998840
259.996033
-231.996460
-179.997253
179.997253
-23.999634
-259.996033
259.996033
155.997620
-127.998047
23.999634
335.994873
-307.995300
-179.997253
207.996826
-23.999634
-307.995300
259.996033
75.998840
-283.995667
51.999207
231.996460
-335.994873
-155.997620
155.997620
-155.997620
-411.993713
259.996033
103.998413
-307.995300
51.999207
155.997620
-359.994507
-231.996460
179.997253
-155.997620
-335.994873
207.996826
155.997620
-283.995667
-103.998413
179.997253
-411.993713
-259.996033
51.999207
-155.997620
-515.992126
103.998413
-23.999634
-411.993713
-231.996460
75.998840
-463.992920
-307.995300
23.999634
-259.996033
-463.992920
103.998413
51.999207
-387.994080
-103.998413
179.997253
-567.991333
-439.993286
23.999634
-231.996460
-411.993713
127.998047
0.000000
-335.994873
-127.998047
103.998413
-491.992493
-411.993713
51.999207
-283.995667
-463.992920
127.998047
-75.998840
-307.995300
-103.998413
103.998413
-411.993713
-387.994080
-23.999634
-259.996033
-515.992126
75.998840
-51.999207
-411.993713
-231.996460
51.999207
-591.990967
-439.993286
-51.999207
-179.997253
-491.992493
103.998413
103.998413
-359.994507
-179.997253
103.998413
-515.992126
-387.994080
51.999207
-103.998413
-515.992126
51.999207
-23.999634
-491.992493
-155.997620
51.999207
-439.993286
-387.994080
-127.998047
-231.996460
-567.991333
103.998413
51.999207
-359.994507
-155.997620
75.998840
-387.994080
-387.994080
0.000000
-259.996033
-439.993286
23.999634
23.999634
-335.994873
-179.997253
155.997620
-411.993713
-411.993713
-23.999634
-207.996826
-387.994080
155.997620
103.998413
-335.994873
-103.998413
179.997253
-387.994080
-259.996033
23.999634
-23.999634
-307.995300
179.997253
179.997253
-207.996826
-23.999634
179.997253
-307.995300
-179.997253
155.997620
0.000000
-411.993713
231.996460
155.997620
-259.996033
-179.997253
179.997253
-387.994080
-411.993713
75.998840
-127.998047
-439.993286
179.997253
51.999207
-335.994873
-103.998413
231.996460
-359.994507
-259.996033
179.997253
-51.999207
-411.993713
155.997620
0.000000
-335.994873
-103.998413
179.997253
-439.993286
-335.994873
51.999207
-103.998413
-387.994080
179.997253
103.998413
-307.995300
-155.997620
127.998047
-335.994873
-307.995300
103.998413
-103.998413
-359.994507
127.998047
155.997620
-307.995300
-75.998840
155.997620
-387.994080
-231.996460
51.999207
-179.997253
-387.994080
155.997620
51.999207
-283.995667
-179.997253
103.998413
-335.994873
-335.994873
127.998047
-75.998840
-359.994507
155.997620
179.997253
-231.996460
-75.998840
207.996826
-283.995667
-155.997620
75.998840
-75.998840
-283.995667
127.998047
127.998047
-259.996033
51.999207
207.996826
-283.995667
-231.996460
155.997620
0.000000
-335.994873
155.997620
155.997620
-179.997253
-51.999207
207.996826
-283.995667
-231.996460
75.998840
-51.999207
-283.995667
207.996826
103.998413
-155.997620
-51.999207
283.995667
-207.996826
-231.996460
127.998047
-75.998840
-307.995300
231.996460
207.996826
-127.998047
0.000000
207.996826
-283.995667
-231.996460
155.997620
-23.999634
-283.995667
207.996826
127.998047
-127.998047
-51.999207
207.996826
-231.996460
-259.996033
127.998047
0.000000
-335.994873
155.997620
179.997253
-207.996826
-51.999207
179.997253
-283.995667
-359.994507
51.999207
-75.998840
-335.994873
103.998413
-23.999634
-207.996826
-155.997620
207.996826
-335.994873
-231.996460
51.999207
23.999634
-259.996033
155.997620
283.995667
-155.997620
-23.999634
259.996033
-207.996826
-207.996826
23.999634
23.999634
-307.995300
231.996460
179.997253
-155.997620
-51.999207
231.996460
-259.996033
-207.996826
51.999207
23.999634
-283.995667
207.996826
259.996033
-127.998047
-51.999207
307.995300
-207.996826
-231.996460
127.998047
179.997253
-283.995667
155.997620
231.996460
-75.998840
-127.998047
283.995667
-179.997253
-207.996826
51.999207
103.998413
-259.996033
231.996460
259.996033
-127.998047
-51.999207
283.995667
-127.998047
-207.996826
155.997620
103.998413
-231.996460
155.997620
231.996460
-103.998413
0.000000
259.996033
-207.996826
-179.997253
103.998413
0.000000
-283.995667
179.997253
103.998413
-103.998413
-103.998413
155.997620
-179.997253
-231.996460
23.999634
51.999207
-259.996033
127.998047
259.996033
-23.999634
23.999634
411.993713
-75.998840
-259.996033
155.997620
155.997620
-231.996460
259.996033
231.996460
-127.998047
-75.998840
259.996033
-103.998413
-207.996826
207.996826
75.998840
-283.995667
231.996460
231.996460
0.000000
-51.999207
283.995667
-155.997620
-155.997620
155.997620
127.998047
-231.996460
231.996460
207.996826
-75.998840
-23.999634
283.995667
-155.997620
-103.998413
127.998047
23.999634
-127.998047
207.996826
307.995300
-23.999634
-103.998413
259.996033
-207.996826
-231.996460
155.997620
127.998047
-207.996826
179.997253
207.996826
-75.998840
-51.999207
283.995667
-127.998047
-207.996826
103.998413
23.999634
-155.997620
155.997620
307.995300
-127.998047
-75.998840
231.996460
-75.998840
-231.996460
127.998047
179.997253
-231.996460
179.997253
231.996460
-23.999634
0.000000
335.994873
-75.998840
-103.998413
155.997620
127.998047
-179.997253
307.995300
259.996033
-51.999207
0.000000
387.994080
-75.998840
-207.996826
207.996826
155.997620
-207.996826
155.997620
359.994507
23.999634
-51.999207
359.994507
-103.998413
-155.997620
155.997620
155.997620
-127.998047
307.995300
387.994080
-23.999634
0.000000
307.995300
-51.999207
-155.997620
283.995667
155.997620
-155.997620
259.996033
283.995667
-207.996826
23.999634
359.994507
0.000000
-75.998840
463.992920
283.995667
-103.998413
387.994080
491.992493
-23.999634
179.997253
643.990173
155.997620
75.998840
643.990173
359.994507
127.998047
567.991333
619.990540
155.997620
359.994507
747.988586
359.994507
259.996033
747.988586
539.991760
259.996033
567.991333
799.987793
231.996460
411.993713
799.987793
387.994080
259.996033
851.987000
619.990540
335.994873
671.989746
851.987000
307.995300
515.992126
851.987000
439.993286
283.995667
1083.983459
619.990540
307.995300
671.989746
903.986206
283.995667
463.992920
851.987000
359.994507
259.996033
979.985046
591.990967
207.996826
643.990173
695.989380
155.997620
387.994080
671.989746
359.994507
155.997620
927.985840
463.992920
155.997620
387.994080
539.991760
0.000000
207.996826
463.992920
207.996826
23.999634
775.988159
387.994080
103.998413
411.993713
591.990967
-75.998840
179.997253
439.993286
127.998047
-51.999207
695.989380
307.995300
0.000000
283.995667
491.992493
-387.994080
75.998840
387.994080
51.999207
-103.998413
515.992126
155.997620
-155.997620
179.997253
359.994507
-359.994507
51.999207
387.994080
0.000000
-75.998840
491.992493
207.996826
-207.996826
155.997620
335.994873
-283.995667
-23.999634
231.996460
51.999207
-207.996826
359.994507
127.998047
-283.995667
75.998840
179.997253
-307.995300
-75.998840
207.996826
-155.997620
-335.994873
283.995667
0.000000
-259.996033
103.998413
283.995667
-359.994507
-207.996826
127.998047
-103.998413
-231.996460
307.995300
75.998840
-231.996460
103.998413
207.996826
-387.994080
-179.997253
155.997620
-207.996826
-231.996460
283.995667
75.998840
-283.995667
-51.999207
155.997620
-411.993713
-179.997253
207.996826
-127.998047
-387.994080
307.995300
51.999207
-179.997253
51.999207
179.997253
-307.995300
-155.997620
103.998413
-179.997253
-359.994507
231.996460
51.999207
-335.994873
-51.999207
127.998047
-387.994080
-103.998413
103.998413
-75.998840
-259.996033
259.996033
179.997253
-259.996033
23.999634
231.996460
-387.994080
-127.998047
179.997253
-75.998840
-283.995667
207.996826
51.999207
-259.996033
75.998840
207.996826
-307.995300
-155.997620
207.996826
-75.998840
-387.994080
207.996826
51.999207
-231.996460
-51.999207
155.997620
-335.994873
-231.996460
75.998840
-127.998047
-387.994080
155.997620
23.999634
-359.994507
-75.998840
127.998047
-411.993713
-359.994507
75.998840
-359.994507
-491.992493
127.998047
-23.999634
-411.993713
-127.998047
23.999634
-491.992493
-387.994080
51.999207
-231.996460
-411.993713
103.998413
51.999207
-359.994507
-75.998840
179.997253
-439.993286
-207.996826
75.998840
-231.996460
-359.994507
155.997620
51.999207
-307.995300
-103.998413
51.999207
-463.992920
-387.994080
-23.999634
-259.996033
-515.992126
103.998413
-23.999634
-359.994507
-179.997253
103.998413
-491.992493
-387.994080
-75.998840
-207.996826
-463.992920
103.998413
-103.998413
-359.994507
-103.998413
75.998840
-439.993286
-335.994873
23.999634
-179.997253
-359.994507
155.997620
0.000000
-307.995300
-75.998840
23.999634
-387.994080
-335.994873
75.998840
-179.997253
-491.992493
207.996826
75.998840
-283.995667
-75.998840
103.998413
-411.993713
-259.996033
51.999207
-103.998413
-439.993286
155.997620
103.998413
-259.996033
-103.998413
155.997620
-463.992920
-411.993713
0.000000
-103.998413
-411.993713
51.999207
-23.999634
-335.994873
-155.997620
75.998840
-439.993286
-387.994080
-23.999634
-231.996460
-359.994507
207.996826
23.999634
-259.996033
-103.998413
127.998047
-387.994080
-411.993713
-75.998840
-179.997253
-491.992493
179.997253
75.998840
-207.996826
-23.999634
283.995667
-259.996033
-155.997620
75.998840
0.000000
-231.996460
283.995667
179.997253
-127.998047
0.000000
335.994873
-231.996460
-127.998047
207.996826
23.999634
-179.997253
335.994873
283.995667
-51.999207
207.996826
387.994080
-155.997620
-127.998047
231.996460
103.998413
-75.998840
359.994507
359.994507
-23.999634
75.998840
359.994507
-127.998047
-23.999634
335.994873
179.997253
-155.997620
411.993713
387.994080
75.998840
207.996826
515.992126
51.999207
51.999207
515.992126
335.994873
-51.999207
463.992920
491.992493
103.998413
307.995300
643.990173
23.999634
127.998047
439.993286
359.994507
51.999207
515.992126
439.993286
127.998047
207.996826
591.990967
51.999207
127.998047
515.992126
283.995667
0.000000
567.991333
515.992126
207.996826
307.995300
671.989746
127.998047
231.996460
463.992920
359.994507
155.997620
695.989380
539.991760
127.998047
307.995300
643.990173
75.998840
127.998047
387.994080
231.996460
23.999634
439.993286
515.992126
51.999207
259.996033
491.992493
0.000000
-51.999207
307.995300
207.996826
-75.998840
387.994080
359.994507
23.999634
103.998413
387.994080
-127.998047
-23.999634
335.994873
127.998047
-231.996460
307.995300
231.996460
-51.999207
0.000000
307.995300
-207.996826
-127.998047
127.998047
51.999207
-207.996826
359.994507
359.994507
-23.999634
0.000000
359.994507
-231.996460
-207.996826
179.997253
51.999207
-335.994873
179.997253
259.996033
-155.997620
51.999207
307.995300
-207.996826
-103.998413
259.996033
23.999634
-231.996460
179.997253
307.995300
-179.997253
0.000000
231.996460
-155.997620
-75.998840
75.998840
75.998840
-179.997253
259.996033
207.996826
-51.999207
51.999207
307.995300
-179.997253
-155.997620
127.998047
23.999634
-231.996460
259.996033
207.996826
-75.998840
23.999634
259.996033
-259.996033
-207.996826
127.998047
51.999207
-283.995667
207.996826
259.996033
-179.997253
-127.998047
231.996460
-259.996033
-231.996460
75.998840
0.000000
-307.995300
179.997253
155.997620
-75.998840
-75.998840
207.996826
-259.996033
-335.994873
75.998840
51.999207
-179.997253
127.998047
155.997620
-179.997253
-127.998047
155.997620
-307.995300
-335.994873
-75.998840
-23.999634
-387.994080
75.998840
155.997620
-127.998047
-103.998413
179.997253
-283.995667
-283.995667
-51.999207
-51.999207
-387.994080
23.999634
103.998413
-207.996826
-155.997620
207.996826
-335.994873
-359.994507
-51.999207
-23.999634
-335.994873
103.998413
75.998840
-207.996826
-231.996460
127.998047
-231.996460
-283.995667
-23.999634
-51.999207
-335.994873
-23.999634
103.998413
-231.996460
-179.997253
207.996826
-335.994873
-335.994873
23.999634
0.000000
-259.996033
75.998840
231.996460
-179.997253
-155.997620
127.998047
-259.996033
-307.995300
51.999207
0.000000
-335.994873
51.999207
127.998047
-127.998047
-155.997620
207.996826
-155.997620
-231.996460
75.998840
51.999207
-231.996460
179.997253
207.996826
-155.997620
-103.998413
231.996460
-127.998047
-283.995667
75.998840
75.998840
-259.996033
127.998047
207.996826
-103.998413
-103.998413
335.994873
-155.997620
-127.998047
179.997253
103.998413
-179.997253
231.996460
335.994873
-75.998840
-23.999634
283.995667
-103.998413
-127.998047
155.997620
207.996826
-127.998047
207.996826
307.995300
-75.998840
23.999634
307.995300
-103.998413
-127.998047
75.998840
103.998413
-207.996826
179.997253
307.995300
-51.999207
-23.999634
335.994873
-127.998047
-155.997620
155.997620
127.998047
-231.996460
179.997253
307.995300
0.000000
23.999634
335.994873
-179.997253
-179.997253
75.998840
23.999634
-283.995667
207.996826
283.995667
-23.999634
-51.999207
259.996033
-127.998047
-283.995667
0.000000
103.998413
-387.994080
127.998047
179.997253
-51.999207
-103.998413
231.996460
-155.997620
-307.995300
155.997620
103.998413
-207.996826
155.997620
207.996826
-75.998840
-75.998840
207.996826
-51.999207
-259.996033
127.998047
103.998413
-283.995667
103.998413
207.996826
-75.998840
-51.999207
207.996826
-127.998047
-207.996826
231.996460
127.998047
-127.998047
259.996033
307.995300
-75.998840
-23.999634
283.995667
0.000000
-127.998047
411.993713
307.995300
-103.998413
359.994507
387.994080
-155.997620
75.998840
359.994507
-51.999207
-51.999207
491.992493
207.996826
-103.998413
283.995667
439.993286
-75.998840
207.996826
411.993713
51.999207
-103.998413
359.994507
155.997620
-155.997620
307.995300
335.994873
-51.999207
23.999634
307.995300
23.999634
-127.998047
491.992493
231.996460
-155.997620
207.996826
259.996033
-307.995300
-23.999634
283.995667
0.000000
-335.994873
463.992920
127.998047
-207.996826
51.999207
207.996826
-335.994873
-127.998047
179.997253
-231.996460
-283.995667
411.993713
23.999634
-207.996826
103.998413
283.995667
-307.995300
-127.998047
207.996826
-103.998413
-307.995300
515.992126
179.997253
-103.998413
103.998413
231.996460
-335.994873
-179.997253
179.997253
-75.998840
-179.997253
591.990967
155.997620
-155.997620
23.999634
259.996033
-387.994080
-127.998047
103.998413
-103.998413
-283.995667
387.994080
103.998413
-259.996033
0.000000
259.996033
-491.992493
-103.998413
307.995300
-75.998840
-231.996460
567.991333
51.999207
-207.996826
103.998413
307.995300
-411.993713
-127.998047
207.996826
-75.998840
-283.995667
307.995300
75.998840
-259.996033
51.999207
179.997253
-463.992920
-207.996826
103.998413
-155.997620
-307.995300
207.996826
127.998047
-335.994873
23.999634
155.997620
-411.993713
-207.996826
155.997620
-155.997620
-411.993713
231.996460
155.997620
-335.994873
51.999207
155.997620
-439.993286
-231.996460
127.998047
-127.998047
-387.994080
179.997253
127.998047
-359.994507
-23.999634
127.998047
-359.994507
-259.996033
51.999207
-155.997620
-411.993713
179.997253
23.999634
-259.996033
-23.999634
283.995667
-335.994873
-179.997253
75.998840
-179.997253
-307.995300
179.997253
75.998840
-207.996826
-23.999634
207.996826
-387.994080
-207.996826
127.998047
-179.997253
-335.994873
207.996826
-23.999634
-359.994507
-51.999207
51.999207
-411.993713
-259.996033
51.999207
-207.996826
-387.994080
207.996826
127.998047
-387.994080
-51.999207
207.996826
-283.995667
-179.997253
179.997253
-127.998047
-359.994507
207.996826
23.999634
-307.995300
0.000000
155.997620
-359.994507
-155.997620
155.997620
-75.998840
-411.993713
207.996826
103.998413
-283.995667
-23.999634
179.997253
-387.994080
-307.995300
127.998047
-103.998413
-387.994080
179.997253
51.999207
-335.994873
-23.999634
155.997620
-359.994507
-283.995667
103.998413
-75.998840
-359.994507
155.997620
51.999207
-307.995300
-23.999634
207.996826
-335.994873
-179.997253
127.998047
-155.997620
-359.994507
207.996826
75.998840
-307.995300
23.999634
127.998047
-359.994507
-179.997253
103.998413
23.999634
-307.995300
283.995667
75.998840
-207.996826
-23.999634
231.996460
-231.996460
-179.997253
127.998047
-155.997620
-387.994080
179.997253
23.999634
-335.994873
-51.999207
127.998047
-387.994080
-335.994873
103.998413
-155.997620
-411.993713
155.997620
23.999634
-307.995300
-75.998840
259.996033
-359.994507
-259.996033
179.997253
-179.997253
-335.994873
127.998047
23.999634
-387.994080
-231.996460
103.998413
-463.992920
-307.995300
-75.998840
-179.997253
-411.993713
127.998047
0.000000
-359.994507
-75.998840
103.998413
-463.992920
-439.993286
0.000000
-231.996460
-463.992920
75.998840
-23.999634
-307.995300
-231.996460
127.998047
-439.993286
-259.996033
23.999634
-207.996826
-411.993713
51.999207
0.000000
-335.994873
-207.996826
179.997253
-387.994080
-231.996460
51.999207
-103.998413
-335.994873
179.997253
103.998413
-259.996033
-23.999634
207.996826
-259.996033
-259.996033
103.998413
-51.999207
-335.994873
127.998047
155.997620
-127.998047
-75.998840
283.995667
-259.996033
-155.997620
127.998047
-51.999207
-307.995300
283.995667
179.997253
-127.998047
51.999207
283.995667
-283.995667
-127.998047
75.998840
-23.999634
-231.996460
307.995300
231.996460
-127.998047
0.000000
439.993286
-307.995300
-207.996826
103.998413
-23.999634
-307.995300
283.995667
207.996826
-231.996460
-127.998047
207.996826
-335.994873
-259.996033
127.998047
-23.999634
-335.994873
231.996460
127.998047
-259.996033
-23.999634
207.996826
-307.995300
-207.996826
51.999207
-23.999634
-359.994507
127.998047
231.996460
-127.998047
-75.998840
283.995667
-207.996826
-207.996826
155.997620
51.999207
-231.996460
259.996033
231.996460
-103.998413
23.999634
283.995667
-207.996826
-127.998047
231.996460
127.998047
-207.996826
283.995667
231.996460
-51.999207
75.998840
411.993713
-207.996826
-127.998047
259.996033
207.996826
-75.998840
387.994080
283.995667
-23.999634
127.998047
387.994080
-103.998413
-75.998840
259.996033
127.998047
-179.997253
307.995300
283.995667
-155.997620
-51.999207
283.995667
-179.997253
-103.998413
207.996826
127.998047
-103.998413
231.996460
307.995300
-23.999634
23.999634
387.994080
-103.998413
-103.998413
231.996460
75.998840
-179.997253
283.995667
307.995300
-127.998047
0.000000
283.995667
-207.996826
-155.997620
259.996033
0.000000
-231.996460
155.997620
259.996033
-127.998047
-23.999634
207.996826
-207.996826
-207.996826
127.998047
0.000000
-231.996460
207.996826
207.996826
-179.997253
-51.999207
155.997620
-207.996826
-259.996033
155.997620
-75.998840
-411.993713
127.998047
179.997253
-179.997253
-51.999207
207.996826
-259.996033
-259.996033
103.998413
0.000000
-359.994507
127.998047
127.998047
-103.998413
-51.999207
259.996033
-231.996460
-207.996826
23.999634
-103.998413
-439.993286
23.999634
127.998047
-207.996826
-127.998047
179.997253
-283.995667
-307.995300
75.998840
-51.999207
-387.994080
51.999207
103.998413
-127.998047
-231.996460
179.997253
-231.996460
-283.995667
-23.999634
-127.998047
-439.993286
103.998413
103.998413
-179.997253
-207.996826
155.997620
-335.994873
-335.994873
23.999634
0.000000
-359.994507
179.997253
207.996826
-259.996033
-75.998840
127.998047
-359.994507
-335.994873
-51.999207
-51.999207
-387.994080
-23.999634
127.998047
-231.996460
-155.997620
127.998047
-335.994873
-307.995300
-23.999634
-23.999634
-359.994507
75.998840
207.996826
-155.997620
-51.999207
207.996826
-207.996826
-307.995300
-23.999634
-75.998840
-307.995300
75.998840
155.997620
-179.997253
-127.998047
259.996033
-335.994873
-283.995667
-23.999634
0.000000
-359.994507
155.997620
127.998047
-103.998413
-155.997620
207.996826
-259.996033
-283.995667
-23.999634
75.998840
-335.994873
51.999207
103.998413
-127.998047
-103.998413
207.996826
-231.996460
-231.996460
51.999207
23.999634
-439.993286
127.998047
75.998840
-127.998047
-179.997253
207.996826
-283.995667
-307.995300
-23.999634
23.999634
-259.996033
103.998413
127.998047
-155.997620
-127.998047
103.998413
-283.995667
-359.994507
-51.999207
0.000000
-387.994080
75.998840
155.997620
-127.998047
-127.998047
207.996826
-155.997620
-283.995667
23.999634
23.999634
-283.995667
103.998413
155.997620
-103.998413
-75.998840
207.996826
-127.998047
-259.996033
51.999207
75.998840
-231.996460
155.997620
283.995667
-103.998413
-75.998840
231.996460
-103.998413
-231.996460
127.998047
155.997620
-179.997253
231.996460
307.995300
23.999634
0.000000
335.994873
0.000000
-127.998047
207.996826
231.996460
-103.998413
283.995667
359.994507
-23.999634
-23.999634
259.996033
-75.998840
-179.997253
179.997253
75.998840
-231.996460
155.997620
231.996460
0.000000
23.999634
283.995667
-127.998047
-127.998047
51.999207
127.998047
-231.996460
127.998047
259.996033
-23.999634
-75.998840
207.996826
-103.998413
-335.994873
75.998840
103.998413
-307.995300
75.998840
179.997253
-103.998413
-231.996460
207.996826
-75.998840
-307.995300
-23.999634
127.998047
-259.996033
127.998047
283.995667
-75.998840
-127.998047
179.997253
-103.998413
-335.994873
51.999207
23.999634
-207.996826
0.000000
207.996826
-103.998413
-51.999207
259.996033
-51.999207
-179.997253
155.997620
75.998840
-207.996826
103.998413
231.996460
-51.999207
-51.999207
283.995667
-127.998047
-231.996460
127.998047
75.998840
-207.996826
127.998047
259.996033
-23.999634
-127.998047
283.995667
23.999634
-75.998840
207.996826
155.997620
-127.998047
207.996826
359.994507
23.999634
0.000000
387.994080
-23.999634
-103.998413
207.996826
231.996460
-127.998047
155.997620
387.994080
-23.999634
0.000000
387.994080
75.998840
-127.998047
439.993286
307.995300
-127.998047
207.996826
387.994080
-207.996826
-23.999634
307.995300
51.999207
-127.998047
359.994507
283.995667
-127.998047
179.997253
359.994507
-127.998047
0.000000
387.994080
0.000000
-283.995667
463.992920
207.996826
-179.997253
179.997253
307.995300
-231.996460
-75.998840
259.996033
-51.999207
-231.996460
283.995667
127.998047
-127.998047
103.998413
283.995667
-307.995300
-127.998047
335.994873
-51.999207
-127.998047
567.991333
155.997620
-207.996826
127.998047
307.995300
-283.995667
-23.999634
359.994507
-23.999634
-207.996826
463.992920
283.995667
-207.996826
155.997620
307.995300
-283.995667
-103.998413
307.995300
-23.999634
-259.996033
439.993286
179.997253
-231.996460
155.997620
231.996460
-231.996460
-127.998047
335.994873
-127.998047
-259.996033
567.991333
259.996033
-179.997253
155.997620
231.996460
-259.996033
-155.997620
307.995300
-75.998840
-179.997253
539.991760
207.996826
-207.996826
155.997620
307.995300
-127.998047
-75.998840
259.996033
-51.999207
-231.996460
491.992493
127.998047
-179.997253
75.998840
283.995667
-515.992126
-179.997253
231.996460
-23.999634
-127.998047
539.991760
207.996826
-207.996826
75.998840
307.995300
-387.994080
-103.998413
259.996033
23.999634
-231.996460
491.992493
283.995667
-179.997253
127.998047
359.994507
-283.995667
-75.998840
259.996033
-51.999207
-259.996033
439.993286
207.996826
-155.997620
103.998413
283.995667
-307.995300
-127.998047
179.997253
-23.999634
-259.996033
335.994873
179.997253
-127.998047
103.998413
307.995300
-307.995300
-179.997253
259.996033
-51.999207
-359.994507
283.995667
75.998840
-207.996826
-75.998840
155.997620
-307.995300
-155.997620
207.996826
-127.998047
-307.995300
231.996460
75.998840
-283.995667
51.999207
75.998840
-439.993286
-307.995300
103.998413
-207.996826
-387.994080
155.997620
-51.999207
-387.994080
-127.998047
207.996826
-411.993713
-259.996033
0.000000
-155.997620
-411.993713
103.998413
-23.999634
-387.994080
-127.998047
155.997620
-411.993713
-259.996033
0.000000
-155.997620
-387.994080
207.996826
51.999207
-283.995667
-75.998840
155.997620
-411.993713
-259.996033
51.999207
-179.997253
-463.992920
259.996033
0.000000
-283.995667
-103.998413
103.998413
-335.994873
-307.995300
0.000000
-207.996826
-515.992126
0.000000
-23.999634
-359.994507
-127.998047
51.999207
-439.993286
-335.994873
23.999634
-179.997253
-439.993286
103.998413
23.999634
-359.994507
-103.998413
103.998413
-335.994873
-283.995667
75.998840
-207.996826
-491.992493
127.998047
0.000000
-307.995300
-103.998413
75.998840
-387.994080
-283.995667
51.999207
-127.998047
-463.992920
127.998047
-23.999634
-359.994507
-179.997253
127.998047
-359.994507
-307.995300
75.998840
-103.998413
-359.994507
75.998840
75.998840
-307.995300
-51.999207
231.996460
-335.994873
-259.996033
23.999634
-127.998047
-411.993713
103.998413
0.000000
-231.996460
-23.999634
155.997620
-359.994507
-283.995667
127.998047
-103.998413
-359.994507
259.996033
75.998840
-155.997620
-23.999634
207.996826
-231.996460
-179.997253
103.998413
-103.998413
-283.995667
207.996826
155.997620
-179.997253
0.000000
387.994080
-283.995667
-103.998413
155.997620
155.997620
-179.997253
259.996033
155.997620
-179.997253
23.999634
259.996033
-231.996460
-179.997253
179.997253
-23.999634
-335.994873
155.997620
75.998840
-231.996460
-75.998840
231.996460
-335.994873
-307.995300
75.998840
-155.997620
-411.993713
0.000000
0.000000
-307.995300
-259.996033
179.997253
-463.992920
-283.995667
-23.999634
-179.997253
-439.993286
75.998840
51.999207
-231.996460
-127.998047
207.996826
-283.995667
-179.997253
231.996460
-23.999634
-283.995667
231.996460
179.997253
-231.996460
-75.998840
307.995300
-231.996460
-127.998047
231.996460
-51.999207
-307.995300
231.996460
179.997253
-103.998413
51.999207
207.996826
-179.997253
-127.998047
259.996033
23.999634
-207.996826
259.996033
259.996033
-155.997620
51.999207
259.996033
-259.996033
-127.998047
179.997253
23.999634
-259.996033
259.996033
231.996460
-155.997620
0.000000
359.994507
-231.996460
-155.997620
179.997253
-51.999207
-335.994873
307.995300
179.997253
-103.998413
-75.998840
283.995667
-231.996460
-231.996460
179.997253
0.000000
-283.995667
179.997253
179.997253
-155.997620
-75.998840
207.996826
-283.995667
-207.996826
127.998047
-23.999634
-335.994873
259.996033
51.999207
-179.997253
-23.999634
307.995300
-207.996826
-231.996460
75.998840
23.999634
-231.996460
307.995300
207.996826
-127.998047
0.000000
335.994873
-207.996826
-127.998047
179.997253
103.998413
-283.995667
259.996033
127.998047
-75.998840
0.000000
283.995667
-231.996460
-155.997620
127.998047
23.999634
-259.996033
207.996826
155.997620
-51.999207
23.999634
307.995300
-207.996826
-259.996033
103.998413
51.999207
-307.995300
259.996033
155.997620
-127.998047
0.000000
231.996460
-283.995667
-335.994873
51.999207
-51.999207
-335.994873
207.996826
103.998413
-155.997620
-75.998840
207.996826
-307.995300
-283.995667
-23.999634
-51.999207
-335.994873
75.998840
51.999207
-179.997253
-51.999207
231.996460
-259.996033
-231.996460
75.998840
75.998840
-283.995667
207.996826
155.997620
-127.998047
-75.998840
283.995667
-103.998413
-155.997620
155.997620
155.997620
-127.998047
231.996460
335.994873
0.000000
155.997620
411.993713
-23.999634
51.999207
283.995667
259.996033
-155.997620
439.993286
439.993286
127.998047
259.996033
539.991760
75.998840
23.999634
387.994080
387.994080
23.999634
515.992126
567.991333
259.996033
283.995667
723.988953
283.995667
207.996826
643.990173
463.992920
207.996826
671.989746
591.990967
359.994507
491.992493
695.989380
231.996460
179.997253
591.990967
463.992920
103.998413
619.990540
619.990540
259.996033
359.994507
695.989380
283.995667
231.996460
567.991333
515.992126
231.996460
695.989380
671.989746
335.994873
387.994080
671.989746
103.998413
75.998840
491.992493
307.995300
103.998413
567.991333
539.991760
127.998047
307.995300
567.991333
75.998840
75.998840
411.993713
307.995300
-23.999634
411.993713
463.992920
75.998840
207.996826
463.992920
-51.999207
-75.998840
283.995667
283.995667
-75.998840
359.994507
463.992920
23.999634
103.998413
411.993713
-51.999207
0.000000
307.995300
283.995667
-155.997620
307.995300
335.994873
0.000000
51.999207
439.993286
51.999207
75.998840
463.992920
307.995300
51.999207
463.992920
619.990540
259.996033
307.995300
567.991333
127.998047
155.997620
539.991760
411.993713
155.997620
567.991333
539.991760
155.997620
231.996460
567.991333
103.998413
155.997620
387.994080
283.995667
-23.999634
463.992920
439.993286
155.997620
103.998413
515.992126
23.999634
-51.999207
359.994507
259.996033
-75.998840
387.994080
515.992126
75.998840
103.998413
439.993286
-23.999634
23.999634
359.994507
359.994507
-23.999634
411.993713
463.992920
51.999207
127.998047
439.993286
-103.998413
-51.999207
207.996826
179.997253
-155.997620
259.996033
259.996033
0.000000
-51.999207
231.996460
-51.999207
-51.999207
207.996826
127.998047
-179.997253
307.995300
359.994507
23.999634
0.000000
387.994080
-127.998047
-103.998413
259.996033
179.997253
-207.996826
259.996033
283.995667
-103.998413
-23.999634
283.995667
-155.997620
-155.997620
179.997253
155.997620
-179.997253
231.996460
283.995667
-155.997620
0.000000
283.995667
-207.996826
-207.996826
75.998840
51.999207
-259.996033
127.998047
259.996033
23.999634
-103.998413
307.995300
-127.998047
-231.996460
51.999207
0.000000
-283.995667
127.998047
231.996460
-127.998047
-103.998413
75.998840
-359.994507
-411.993713
-127.998047
-23.999634
-439.993286
51.999207
23.999634
-207.996826
-307.995300
103.998413
-387.994080
-463.992920
-103.998413
-231.996460
-439.993286
23.999634
-23.999634
-307.995300
-283.995667
-23.999634
-463.992920
-491.992493
-179.997253
-179.997253
-463.992920
-75.998840
-23.999634
-359.994507
-387.994080
