163175.17819148937
163175.17819148937
163175.17819148937
163175.17819148937
163175.17819148937
163175.17819148937
163175.17819148937
163175.17819148937
163175.17819148937
163175.17819148937
163175.17819148937
163175.17819148937
163175.17819148937
163175.17819148937
163175.17819148937
163175.17819148937
163175.17819148937
163175.17819148937
163175.17819148937
163175.17819148937
163175.17819148937
163175.17819148937
163175.17819148937
163175.17819148937
163175.17819148937
163175.17819148937
163175.17819148937
163175.17819148937
163175.17819148937
163175.17819148937
163175.17819148937
163175.17819148937
163175.17819148937
163175.17819148937
163175.17819148937
163175.17819148937
163175.17819148937
163175.17819148937
163175.17819148937
163175.17819148937
163175.17819148937
163175.17819148937
163175.17819148937
163175.17819148937
163175.17819148937
163175.17819148937
163175.17819148937
163175.17819148937
163175.17819148937
163175.17819148937
163175.17819148937
163175.17819148937
163175.17819148937
163175.17819148937
163175.17819148937
163175.17819148937
163175.17819148937
163175.17819148937
163175.17819148937
163175.17819148937
163175.17819148937
163175.17819148937
163175.17819148937
163175.17819148937
163175.17819148937
163175.17819148937
163175.17819148937
163175.17819148937
163175.17819148937
163175.17819148937
163175.17819148937
163175.17819148937
163175.17819148937
163175.17819148937
163175.17819148937
163175.17819148937
163175.17819148937
163175.17819148937
163175.17819148937
163175.17819148937
163175.17819148937
163175.17819148937
163175.17819148937
163175.17819148937
163175.17819148937
163175.17819148937
163175.17819148937
163175.17819148937
163175.17819148937
163175.17819148937
163175.17819148937
163175.17819148937
163175.17819148937
163175.17819148937
163175.17819148937
163175.17819148937
163175.17819148937
163175.17819148937
163175.17819148937
163175.17819148937
163175.17819148937
163175.17819148937
163175.17819148937
163175.17819148937
163175.17819148937
163175.17819148937
163175.17819148937
163175.17819148937
163175.17819148937
163175.17819148937
163175.17819148937
163175.17819148937
163175.17819148937
163175.17819148937
163175.17819148937
163175.17819148937
163175.17819148937
163175.17819148937
163175.17819148937
163175.17819148937
163175.17819148937
163175.17819148937
163175.17819148937
163175.17819148937
163175.17819148937
163175.17819148937
163175.17819148937
163175.17819148937
163175.17819148937
163175.17819148937
163175.17819148937
163175.17819148937
163175.17819148937
163175.17819148937
163175.17819148937
163175.17819148937
163175.17819148937
163175.17819148937
163175.17819148937
163175.17819148937
163175.17819148937
163175.17819148937
163175.17819148937
163175.17819148937
163175.17819148937
163175.17819148937
163175.17819148937
163175.17819148937
163175.17819148937
163175.17819148937
163175.17819148937
163175.17819148937
163175.17819148937
163175.17819148937
163175.17819148937
163175.17819148937
163175.17819148937
163175.17819148937
163175.17819148937
163175.17819148937
163175.17819148937
163175.17819148937
163175.17819148937
163175.17819148937
163175.17819148937
163175.17819148937
163175.17819148937
163175.17819148937
163175.17819148937
163175.17819148937
163175.17819148937
163175.17819148937
163175.17819148937
163175.17819148937
163175.17819148937
163175.17819148937
163175.17819148937
163175.17819148937
163175.17819148937
163175.17819148937
163175.17819148937
163175.17819148937
163175.17819148937
163175.17819148937
163175.17819148937
163175.17819148937
163175.17819148937
163175.17819148937
163175.17819148937
163175.17819148937
163175.17819148937
163175.17819148937
163175.17819148937
163175.17819148937
163175.17819148937
163175.17819148937
163175.17819148937
163175.17819148937
163175.17819148937
163175.17819148937
54818.334346504555
244780.19680851063
22962.149316109422
221828.00721884498
107091.95858662613
220563.1219604863
318711.2462006079
90509.01405775076
133863.7032674772
33145.96960486322
300853.4566869301
130029.20858662613
3819.55509118541
268977.35220364743
80305.27431610943
291934.5216565349
57353.08472644377
186117.40805471124
118555.60372340425
105802.17401215805
279176.11208206683
151696.5934650456
87954.344224924
198860.87803951366
178473.31800911852
59912.7344224924
144037.56382978722
54803.394756838905
56088.199468085106
159340.68351063828
192486.6531155015
239665.87727963526
309782.351443769
10183.8202887538
207789.77279635257
86684.47910334346
239660.89741641335
50978.85980243161
54813.354483282674
260058.41717325227
10183.8202887538
104532.30889057751
244765.25721884498
248579.8324468085
300853.4566869301
112181.37879939209
260053.4373100304
53523.569908814585
43339.749620060786
198870.83776595743
248579.8324468085
272806.86702127656
99427.94908814589
68826.68958966565
279181.09194528876
260063.39703647414
195041.32294832825
187387.27317629178
219268.35752279634
242215.56724924012
186112.42819148937
113451.24392097264
12743.46998480243
33131.03001519757
138943.1637537994
293209.3666413374
299578.6117021277
43329.78989361702
221818.0474924012
28036.629939209724
154236.32370820668
47159.3047112462
270262.1569148936
266427.66223404254
311052.21656534955
179753.14285714284
260058.41717325227
294479.23176291795
160625.4882218845
42059.92477203647
155516.148556231
6374.224924012158
103262.44376899695
209064.61778115502
317426.4414893617
224372.71732522795
94328.56914893616
295749.0968844985
325075.51139817626
48434.14969604863
35680.71998480243
132573.91869300912
265162.77697568387
232006.8476443769
84124.82940729483
311057.1964285714
128744.40387537994
288100.02697568387
47164.28457446808
85404.65425531914
309767.4118541033
195041.32294832825
28041.60980243161
252399.3875379939
82840.02469604863
12748.449848024316
248609.71162613982
211659.12651975683
45959.15767477203
308577.22454407293
73960.92857142857
238386.05243161094
85399.67439209727
43329.78989361702
163165.2184650456
237116.1873100304
304677.9916413374
266432.6420972644
101982.61892097264
40785.07978723404
16558.045212765956
147872.05851063828
243490.41223404254
312327.06155015196
202695.37272036474
187402.21276595743
114726.08890577508
188667.0980243161
99432.92895136778
31866.144756838905
126194.71390577508
298308.7465805471
172104.07294832825
119820.48898176292
47159.3047112462
81590.07902735562
2539.730243161094
136393.47378419453
158080.7781155015
138953.12348024314
271532.02203647414
294489.1914893617
54818.334346504555
308502.52659574465
124929.8286474164
316166.5360942249
152971.438449848
133848.76367781154
226927.3871580547
210349.4224924012
49708.994680851065
131309.03343465045
85419.5938449848
200150.66261398175
178483.2777355623
218008.45212765958
293214.3465045593
61192.559270516715
197615.91223404254
239680.8168693009
108361.82370820668
169564.34270516716
65027.05395136778
6379.204787234043
300873.37613981764
225662.50189969604
229477.07712765958
2554.6698328267476
110921.47340425532
89244.1287993921
86689.45896656535
158080.7781155015
291939.5015197568
188672.07788753798
155526.10828267477
316161.556231003
179743.1831306991
242210.58738601822
325085.47112462006
220543.20250759876
290649.71694528876
294479.23176291795
160620.5083586626
154241.30357142855
240935.7424012158
207794.75265957447
20382.58016717325
263877.9722644377
265162.77697568387
210339.46276595743
44599.65501519757
235841.34232522795
300858.43655015196
272801.8871580547
295754.07674772036
181023.00797872338
201415.54787234042
175918.64817629178
30586.31990881459
77755.58434650456
212889.1527355623
270257.1770516717
159345.66337386018
42054.944908814585
198865.85790273556
-4.979863221884498
35680.71998480243
149141.92363221885
277911.2268237082
76475.75949848024
6359.285334346504
135123.608662614
77755.58434650456
267702.50721884496
206514.92781155015
318706.266337386
138943.1637537994
56078.23974164134
246040.1022036474
53533.529635258354
183562.7382218845
235836.36246200607
2544.7101063829787
297023.9418693009
196316.1679331307
109631.68882978724
203960.25797872338
182287.89323708205
323805.6462765957
25486.93996960486
15278.22036474164
48429.169832826745
177198.4730243161
168269.5782674772
33136.00987841945
291934.5216565349
170819.26823708205
104522.34916413373
207794.75265957447
262608.10714285716
7634.130319148936
14018.314969604862
311057.1964285714
100697.81420972644
34410.85486322188
266442.6018237082
246040.1022036474
75200.91451367781
101982.61892097264
68836.64931610943
155511.16869300912
15288.18009118541
302133.2815349544
314871.7716565349
286830.1618541033
289384.8316869301
71376.37955927051
263877.9722644377
262613.08700607903
270257.1770516717
57348.10486322188
252409.34726443767
68831.66945288754
293199.4069148936
130019.24886018237
223092.89247720363
159340.68351063828
268977.35220364743
14013.335106382978
243480.45250759876
114716.1291793313
254983.93655015196
261388.04065349544
40849.81800911854
104592.06724924012
121130.19300911853
251124.54255319148
228177.3328267477
192496.6128419453
284280.4718844985
138943.1637537994
265162.77697568387
263887.93199088145
295749.0968844985
181018.0281155015
152976.4183130699
17837.870060790272
90499.054331307
141502.813449848
11468.625
28031.65007598784
268987.3119300912
228197.25227963526
142767.69870820668
49708.994680851065
215448.80243161094
82854.96428571428
76480.73936170213
200150.66261398175
85404.65425531914
288105.00683890574
286840.1215805471
14018.314969604862
193766.47796352583
63737.26937689969
43344.729483282674
224367.73746200607
276636.38183890574
230751.922112462
174653.7629179331
93048.74430091184
193776.4376899696
249874.59688449846
130024.22872340425
104532.30889057751
105817.1136018237
211624.26747720363
309782.351443769
142787.61816109423
50998.77925531915
270267.13677811547
137688.2382218845
52273.62424012158
192501.59270516716
86694.43882978724
274106.61132218846
103267.42363221884
243500.3719604863
82874.88373860181
248604.73176291792
221828.00721884498
130044.14817629178
184867.46238601822
36970.504559270514
285570.2564589665
66301.89893617021
298313.726443769
323805.6462765957
66291.93920972644
298308.7465805471
281730.7819148936
40790.05965045592
72661.18427051671
164445.0433130699
181018.0281155015
66286.95934650456
3814.575227963526
206514.92781155015
95608.39399696048
300853.4566869301
123640.04407294832
161895.35334346505
72661.18427051671
279176.11208206683
174643.80319148937
109631.68882978724
75200.91451367781
304673.01177811547
118555.60372340425
25486.93996960486
299573.63183890574
223092.89247720363
262613.08700607903
128744.40387537994
53533.529635258354
238391.0322948328
130019.24886018237
206514.92781155015
297033.90159574465
116000.93389057751
82849.9844224924
135123.608662614
188672.07788753798
166989.75341945287
197591.0129179331
183577.67781155015
309777.3715805471
147867.0786474164
193771.4578267477
210339.46276595743
53528.54977203647
212894.1325987842
107077.01899696048
82849.9844224924
84129.80927051671
225642.5824468085
43329.78989361702
80300.29445288754
57363.04445288754
261333.2621580547
66272.0197568389
48434.14969604863
281735.76177811547
25481.960106382976
94323.58928571428
290659.6766717325
202690.39285714284
68826.68958966565
107081.99886018237
7639.11018237082
12728.530395136777
173373.9380699088
256238.86208206686
150411.7887537994
109626.70896656535
279191.0516717325
284280.4718844985
249859.6572948328
122380.13867781154
254964.0170972644
49708.994680851065
214173.9574468085
146602.19338905773
293199.4069148936
123645.02393617021
191221.76785714284
226907.46770516716
293199.4069148936
215443.82256838903
246035.12234042553
201410.56800911852
220538.2226443769
42059.92477203647
140213.02887537994
141487.87386018236
79030.429331307
95598.43427051671
228182.3126899696
19117.69490881459
141492.85372340426
91763.93958966565
168269.5782674772
313611.8662613982
244785.1766717325
201465.34650455927
219333.09574468085
279230.8905775076
309782.351443769
304668.0319148936
253679.21238601822
237101.24772036474
220538.2226443769
147872.05851063828
63722.32978723404
103252.48404255319
195051.28267477202
248579.8324468085
233281.69262917934
202700.35258358662
237116.1873100304
323795.68655015196
274086.6918693009
137673.29863221885
189936.96314589665
81580.11930091184
71386.33928571428
188667.0980243161
57353.08472644377
279186.07180851063
141497.83358662613
323795.68655015196
225642.5824468085
54813.354483282674
119820.48898176292
26761.784954407292
98158.08396656535
155516.148556231
159340.68351063828
67566.78419452887
3819.55509118541
85399.67439209727
6369.245060790273
225647.5623100304
276631.40197568387
181023.00797872338
132583.87841945287
150421.74848024314
205245.0626899696
279196.0315349544
44614.59460486322
124924.84878419452
186132.3476443769
252424.28685410332
39515.2146656535
87959.32408814589
303418.0862462006
293214.3465045593
58637.88943768997
172114.03267477202
66296.91907294832
133858.72340425532
221832.98708206686
119840.40843465045
280465.8966565349
29321.434650455925
62472.38411854103
307237.641337386
175923.62803951366
7649.069908814589
186127.36778115502
285550.33700607903
163175.17819148937
242215.56724924012
228177.3328267477
214163.99772036474
172104.07294832825
98148.12424012157
302123.32180851063
8913.955167173252
100697.81420972644
114716.1291793313
317426.4414893617
112176.39893617021
107067.05927051671
285550.33700607903
263882.9521276596
121090.35410334346
202685.41299392097
112176.39893617021
160615.52849544073
48424.189969604864
110896.57408814589
126199.69376899695
319971.15159574465
48429.169832826745
279186.07180851063
81575.13943768997
229457.15767477202
219268.35752279634
178468.33814589665
103242.52431610941
26761.784954407292
154246.28343465045
188662.11816109423
177193.49316109423
68836.64931610943
35680.71998480243
187387.27317629178
172099.09308510637
286830.1618541033
268977.35220364743
146597.21352583586
230741.96238601822
318691.32674772036
293199.4069148936
189951.9027355623
75200.91451367781
193761.49810030393
79035.40919452887
305952.8366261398
85394.69452887538
85404.65425531914
178473.31800911852
173363.97834346505
123645.02393617021
257513.70706686928
26756.805091185408
191211.8081306991
246040.1022036474
196316.1679331307
249849.69756838903
79030.429331307
228192.27241641335
150411.7887537994
85404.65425531914
265167.75683890574
188667.0980243161
122370.17895136778
44614.59460486322
1264.8852583586627
1259.905395136778
183572.69794832825
95603.4141337386
14008.355243161093
124919.86892097264
201415.54787234042
81570.15957446808
80295.31458966565
239660.89741641335
138938.1838905775
50973.87993920972
307227.68161094224
283000.64703647414
108336.92439209727
135113.6489361702
297028.9217325228
186112.42819148937
26751.825227963524
305952.8366261398
252404.3674012158
16548.085486322187
168264.59840425532
29311.474924012156
154256.24316109423
206559.7465805471
263947.69034954405
48483.94832826748
93073.64361702127
144042.54369300912
302113.36208206683
161880.4137537994
240935.7424012158
256233.88221884498
99417.98936170213
308497.5467325228
109626.70896656535
283000.64703647414
80295.31458966565
142772.67857142855
274081.71200607903
99417.98936170213
127469.55889057751
183567.71808510637
147862.09878419453
44604.63487841945
177198.4730243161
108346.88411854103
5084.440349544073
232016.80737082066
271532.02203647414
57348.10486322188
235836.36246200607
262613.08700607903
3809.5953647416413
223087.91261398175
289384.8316869301
280450.9570668693
314871.7716565349
187402.21276595743
54808.374620060786
240930.7625379939
22942.229863221884
191221.76785714284
8908.975303951367
251139.48214285713
172104.07294832825
225637.60258358662
57358.06458966565
322535.78115501517
186122.3879179331
290654.69680851063
77765.54407294832
93063.68389057751
132573.91869300912
22947.20972644377
124939.78837386018
303408.1265197568
42064.904635258354
224382.67705167172
116010.89361702127
294484.2116261398
70121.45402735562
280470.8765197568
193771.4578267477
118560.58358662613
284300.391337386
61187.57940729483
66281.97948328267
38245.349544072946
30591.299772036473
244760.27735562308
184847.5429331307
75205.8943768997
266427.66223404254
182292.87310030396
279186.07180851063
304673.01177811547
317416.48176291795
33136.00987841945
215438.84270516716
254949.07750759876
35685.69984802431
232016.80737082066
173363.97834346505
33136.00987841945
136398.4536474164
76470.77963525835
247309.96732522795
175928.60790273556
314876.7515197568
84124.82940729483
240940.72226443767
3819.55509118541
200140.70288753798
290654.69680851063
286835.1417173252
217988.53267477202
40785.07978723404
47169.26443768997
10188.800151975684
110891.594224924
294484.2116261398
31866.144756838905
6359.285334346504
76480.73936170213
103257.46390577508
158065.83852583586
62452.46466565349
233291.65235562308
184842.5630699088
47149.34498480243
45884.45972644377
260058.41717325227
59897.794832826745
110896.57408814589
202690.39285714284
226907.46770516716
286825.18199088145
86679.49924012157
63727.30965045592
77740.6447568389
277901.2670972644
206514.92781155015
266422.68237082066
304673.01177811547
16563.02507598784
268972.3723404255
71366.41983282674
288100.02697568387
258778.59232522795
158055.87879939209
289374.8719604863
201415.54787234042
35675.740121580544
311047.2367021277
29311.474924012156
256228.90235562308
188662.11816109423
117275.77887537994
113446.26405775076
85394.69452887538
114726.08890577508
5089.420212765957
174633.8434650456
45879.47986322188
233291.65235562308
155506.18882978722
178458.37841945287
39510.23480243161
163160.2386018237
230727.02279635257
133843.78381458967
15283.200227963525
243475.4726443769
289374.8719604863
205240.0828267477
262598.14741641335
8903.995440729483
100697.81420972644
132563.95896656535
326340.3966565349
15283.200227963525
24202.135258358663
189927.00341945287
268992.29179331305
210384.2815349544
284335.2503799392
25551.67819148936
79080.22796352583
256238.86208206686
282990.6873100304
219263.37765957447
38235.38981762918
303393.1869300912
98148.12424012157
316156.57636778115
262603.1272796352
298298.7868541033
70111.49430091186
85399.67439209727
8899.015577507598
189941.94300911852
198870.83776595743
252404.3674012158
114721.10904255319
144047.523556231
82849.9844224924
300848.4768237082
114726.08890577508
181018.0281155015
105792.21428571428
314876.7515197568
191221.76785714284
62452.46466565349
249859.6572948328
177198.4730243161
52253.70478723404
243485.43237082066
116005.91375379938
137668.31876899695
132563.95896656535
295759.05661094224
53538.50949848024
33131.03001519757
237116.1873100304
80315.23404255319
220533.24278115502
238381.07256838903
119835.42857142857
257518.68693009118
216718.66755319148
217998.4924012158
11473.604863221884
52263.66451367781
289389.81155015196
75220.83396656535
224372.71732522795
169554.38297872338
101997.5585106383
321265.9160334346
6369.245060790273
179768.0824468085
45909.35904255319
58642.86930091185
150436.68806990882
317451.3408054711
302143.2412613982
305962.79635258357
184862.48252279634
52268.64437689969
322525.8214285714
119835.42857142857
163185.1379179331
290654.69680851063
172099.09308510637
66286.95934650456
142767.69870820668
242210.58738601822
316156.57636778115
145322.36854103341
8913.955167173252
178473.31800911852
263887.93199088145
156790.99354103341
36960.544832826745
73936.02925531914
249859.6572948328
90504.03419452887
237121.16717325227
170824.24810030396
283005.626899696
132578.898556231
229472.09726443767
104527.32902735562
70111.49430091186
288119.9464285714
108356.8438449848
210344.44262917934
90513.99392097264
246045.08206686928
1269.865121580547
207799.73252279634
209074.57750759876
72661.18427051671
149151.8833586626
29321.434650455925
6369.245060790273
210344.44262917934
81590.07902735562
93058.70402735562
65007.13449848024
290664.6565349544
284290.43161094224
163165.2184650456
149146.90349544073
277916.2066869301
42059.92477203647
48434.14969604863
209074.57750759876
124924.84878419452
183562.7382218845
210344.44262917934
10193.780015197568
56078.23974164134
94328.56914893616
219268.35752279634
140218.0087386018
178468.33814589665
235841.34232522795
283005.626899696
271527.04217325227
251134.50227963526
52253.70478723404
239655.91755319148
57358.06458966565
45884.45972644377
240930.7625379939
174643.80319148937
53538.50949848024
115995.95402735562
163160.2386018237
313606.88639817626
238391.0322948328
266427.66223404254
178468.33814589665
164450.02317629178
127469.55889057751
28031.65007598784
321250.976443769
145312.40881458967
182282.91337386018
154241.30357142855
19107.73518237082
24197.15539513678
59897.794832826745
30586.31990881459
224357.7777355623
150406.8088905775
113446.26405775076
118545.64399696048
132558.97910334344
59902.77469604863
24212.094984802432
119815.50911854103
234556.53761398175
17832.890197568388
170814.28837386018
256243.84194528873
220588.02127659574
89298.90729483282
323865.40463525837
29.87917933130699
205245.0626899696
175908.688449848
59902.77469604863
177198.4730243161
294479.23176291795
187392.25303951366
286835.1417173252
247309.96732522795
325070.5315349544
20392.53989361702
271537.001899696
290649.71694528876
321250.976443769
209074.57750759876
224362.75759878417
39505.25493920973
198875.81762917934
232016.80737082066
262603.1272796352
275361.5368541033
67561.804331307
314871.7716565349
243490.41223404254
25501.879559270517
26766.764817629177
216718.66755319148
168284.51785714284
169554.38297872338
251139.48214285713
22947.20972644377
128759.34346504559
109631.68882978724
28046.589665653493
295769.016337386
267717.44680851063
147882.01823708205
82869.90387537994
76490.69908814589
262618.0668693009
119840.40843465045
277926.16641337384
7649.069908814589
220553.16223404254
198890.75721884498
94343.50873860181
30601.25949848024
242235.48670212764
182312.79255319148
253699.13183890577
181042.92743161094
26781.70440729483
96893.19870820668
295778.9760638298
40814.95896656535
243505.3518237082
47169.26443768997
35710.59916413374
103272.40349544073
256243.84194528873
226927.3871580547
216728.62727963526
192496.6128419453
89229.18920972644
223097.87234042553
326350.35638297873
178463.35828267477
151696.5934650456
215438.84270516716
82840.02469604863
321245.9965805471
150416.76861702127
75190.95478723403
70096.5547112462
94323.58928571428
225627.64285714284
8899.015577507598
201410.56800911852
197586.03305471124
150406.8088905775
184842.5630699088
308502.52659574465
151681.65387537994
309772.3917173252
197595.99278115502
289374.8719604863
217983.55281155015
209069.5976443769
58632.90957446808
305942.876899696
52258.68465045592
149151.8833586626
124914.88905775076
290654.69680851063
160625.4882218845
67551.84460486322
206514.92781155015
45889.43958966565
56083.21960486322
101972.65919452887
279186.07180851063
184847.5429331307
212884.17287234042
36960.544832826745
17842.849924012156
7634.130319148936
202685.41299392097
29311.474924012156
61177.61968085106
137663.33890577508
38235.38981762918
247309.96732522795
195036.34308510637
79025.4494680851
214163.99772036474
307222.70174772036
48429.169832826745
238391.0322948328
317426.4414893617
124914.88905775076
5089.420212765957
183577.67781155015
156795.97340425532
126204.67363221884
135138.54825227964
318711.2462006079
257518.68693009118
118570.54331306991
56103.139057750755
124939.78837386018
62482.343844984796
48459.04901215805
312346.9810030395
112201.29825227964
91808.75835866261
121120.23328267477
295773.9962006079
218018.41185410332
221837.96694528873
31876.104483282674
201435.46732522795
123664.94338905775
156805.9331306991
291944.48138297873
249874.59688449846
89234.16907294832
34415.83472644377
6374.224924012158
209074.57750759876
141497.83358662613
93058.70402735562
216723.64741641335
12733.510258358661
308502.52659574465
299588.5714285714
124919.86892097264
44599.65501519757
100697.81420972644
49708.994680851065
226932.3670212766
232061.6261398176
122444.87689969604
91843.6174012158
307257.56079027354
113446.26405775076
158050.8989361702
234551.55775075988
50983.83966565349
29306.495060790272
24202.135258358663
40780.09992401215
294474.251899696
217978.57294832825
254949.07750759876
138938.1838905775
187382.2933130699
202680.4331306991
44604.63487841945
203960.25797872338
89209.2697568389
16548.085486322187
266427.66223404254
198855.89817629178
14003.375379939209
141487.87386018236
214149.05813069906
325060.57180851063
168264.59840425532
31851.20516717325
202675.4532674772
258773.61246200607
271527.04217325227
192476.69338905773
76465.79977203647
272801.8871580547
90484.11474164133
93033.8047112462
201410.56800911852
140208.04901215804
249844.71770516716
20377.600303951367
277896.28723404254
247295.0277355623
150406.8088905775
52248.72492401215
215423.9031155015
13998.395516717324
47154.32484802431
183562.7382218845
138933.20402735562
42054.944908814585
136393.47378419453
31851.20516717325
249859.6572948328
149146.90349544073
31856.185030395136
145317.38867781154
277911.2268237082
232016.80737082066
240935.7424012158
219268.35752279634
285560.2967325228
191216.78799392097
152966.45858662613
228187.29255319148
118540.6641337386
50973.87993920972
71376.37955927051
33126.05015197568
140208.04901215804
293199.4069148936
277901.2670972644
303388.2070668693
73916.1098024316
295749.0968844985
177183.53343465045
127459.59916413373
16558.045212765956
152956.49886018236
184832.60334346505
104522.34916413373
304673.01177811547
291919.5820668693
80295.31458966565
175918.64817629178
169539.44338905773
207779.8130699088
173363.97834346505
89219.22948328267
326340.3966565349
256233.88221884498
68831.66945288754
77745.62462006079
230732.00265957447
304677.9916413374
286825.18199088145
205235.10296352583
262608.10714285716
131294.0938449848
133838.80395136776
211614.30775075988
193766.47796352583
323790.7066869301
253679.21238601822
86674.5193768997
299568.65197568387
110891.594224924
219263.37765957447
221808.08776595743
309767.4118541033
91773.89931610941
65002.154635258354
249849.69756838903
150411.7887537994
65002.154635258354
290644.73708206683
298288.8271276596
187387.27317629178
147862.09878419453
99408.02963525835
290644.73708206683
152961.47872340426
166979.79369300912
196301.22834346505
121080.3943768997
211589.40843465045
19087.81572948328
237096.26785714284
243465.5129179331
197566.1136018237
261313.34270516716
299558.6922492401
24187.19566869301
156771.0740881459
47139.38525835866
319956.21200607903
58608.01025835866
267687.56762917934
163150.27887537994
81555.21998480243
178448.41869300912
12718.570668693008
114696.20972644376
215413.94338905773
321231.05699088145
15258.300911854103
135088.7496200608
40760.180471124615
52228.805471124615
177163.6139817629
94303.66983282674
212869.23328267477
75176.01519756838
316126.69718844985
145302.4490881459
86654.59992401216
145297.46922492402
289364.91223404254
86659.57978723403
229442.21808510637
243470.49278115502
113431.3244680851
244735.37803951366
42049.965045592704
299603.51101823704
155560.96732522795
112231.17743161094
221867.84612462006
113456.22378419452
189922.023556231
242200.62765957447
161885.39361702127
40770.140197568384
263872.9924012158
316151.5965045593
132568.93882978722
196311.1880699088
19112.715045592704
281730.7819148936
14008.355243161093
244765.25721884498
15293.159954407294
261333.2621580547
57363.04445288754
50993.799392097266
238391.0322948328
122380.13867781154
156810.91299392097
228202.23214285713
28046.589665653493
232031.7469604863
275376.476443769
256248.82180851063
85424.57370820668
7664.009498480243
277926.16641337384
230761.88183890577
179778.04217325227
133873.66299392097
122395.0782674772
311082.09574468085
283035.5060790274
71406.25873860183
325110.3704407295
81614.97834346505
235861.2617781155
36985.44414893617
7673.9692249240115
221842.94680851063
216738.587006079
150451.62765957447
100732.67325227964
215463.7420212766
81609.99848024316
45919.318768996956
272831.766337386
116025.83320668692
16597.88411854103
224392.6367781155
247334.86664133737
21692.284194528875
219298.23670212764
141522.73290273556
325100.4107142857
167024.61246200607
182317.77241641335
267727.4065349544
261358.1614741641
8933.87462006079
168284.51785714284
277926.16641337384
3829.514817629179
96878.25911854103
325085.47112462006
262623.0467325228
28036.629939209724
42059.92477203647
164455.00303951366
31861.16489361702
67551.84460486322
247314.94718844985
225642.5824468085
317416.48176291795
168264.59840425532
45884.45972644377
223082.93275075988
84124.82940729483
174648.78305471124
11458.665273556231
114716.1291793313
29311.474924012156
247309.96732522795
275346.5972644377
276626.422112462
210339.46276595743
297023.9418693009
77750.60448328267
121100.31382978724
166994.73328267477
144037.56382978722
34410.85486322188
128744.40387537994
5074.480623100304
132563.95896656535
196321.14779635257
99422.969224924
6359.285334346504
229467.1174012158
95598.43427051671
119815.50911854103
283005.626899696
191216.78799392097
189936.96314589665
230736.98252279634
135123.608662614
322520.84156534955
309772.3917173252
175923.62803951366
75200.91451367781
316141.63677811547
243485.43237082066
289379.8518237082
265152.8172492401
262608.10714285716
257513.70706686928
71376.37955927051
283000.64703647414
216718.66755319148
182292.87310030396
138938.1838905775
86679.49924012157
181023.00797872338
317421.4616261398
169544.42325227964
14018.314969604862
107072.0391337386
298298.7868541033
154251.26329787233
283010.60676291795
254959.03723404254
140227.9684650456
117280.75873860181
246035.12234042553
-4.979863221884498
294489.1914893617
47159.3047112462
44609.61474164134
215448.80243161094
20392.53989361702
169539.44338905773
79025.4494680851
285560.2967325228
90499.054331307
166994.73328267477
257513.70706686928
77750.60448328267
326340.3966565349
130019.24886018237
85399.67439209727
299568.65197568387
277906.2469604863
130024.22872340425
104517.36930091184
16558.045212765956
223087.91261398175
133833.8240881459
203950.29825227964
191216.78799392097
39525.174392097266
318736.1455167173
146661.95174772036
109696.42705167172
49733.89399696048
201410.56800911852
71371.39969604863
247300.00759878417
105792.21428571428
39510.23480243161
246030.14247720363
188657.13829787233
81580.11930091184
50983.83966565349
64997.17477203647
237111.2074468085
206519.90767477202
297023.9418693009
47154.32484802431
122375.15881458965
137668.31876899695
305947.85676291795
196321.14779635257
219268.35752279634
266427.66223404254
177193.49316109423
140222.98860182372
34405.875
75200.91451367781
90504.03419452887
220538.2226443769
115995.95402735562
146602.19338905773
67561.804331307
50978.85980243161
146597.21352583586
121105.29369300911
317426.4414893617
68831.66945288754
232021.78723404254
200145.68275075988
235836.36246200607
57363.04445288754
38240.369680851065
172099.09308510637
265167.75683890574
212904.09232522795
248594.77203647414
131304.05357142858
20402.49962006079
39525.174392097266
35695.65957446808
305972.7560790274
218013.43199088145
91788.83890577508
323815.6060030395
318726.18579027354
100717.73366261397
271551.9414893617
293234.26595744677
184867.46238601822
91793.81876899696
14.939589665653495
221837.96694528873
235846.32218844985
276646.34156534955
323820.5858662614
160625.4882218845
141502.813449848
286845.101443769
313606.88639817626
209064.61778115502
124929.8286474164
114731.06876899695
196316.1679331307
100702.79407294832
126204.67363221884
309777.3715805471
248584.8123100304
303408.1265197568
172094.1132218845
211609.32788753798
312332.04141337384
29316.45478723404
317421.4616261398
8913.955167173252
233291.65235562308
7634.130319148936
56078.23974164134
161895.35334346505
52258.68465045592
2534.75037993921
110901.55395136778
263887.93199088145
251129.52241641335
302128.3016717325
96883.23898176292
53528.54977203647
145312.40881458967
116000.93389057751
2539.730243161094
174638.82332826746
294479.23176291795
173373.9380699088
266427.66223404254
276631.40197568387
221818.0474924012
122365.19908814589
39505.25493920973
303408.1265197568
136393.47378419453
277901.2670972644
308507.5064589665
239660.89741641335
217978.57294832825
280455.9369300912
295759.05661094224
263877.9722644377
202685.41299392097
174648.78305471124
271532.02203647414
144037.56382978722
94328.56914893616
200145.68275075988
31851.20516717325
165719.88829787233
172104.07294832825
72651.22454407295
205235.10296352583
49713.974544072946
207794.75265957447
82849.9844224924
26766.764817629177
65012.11436170212
326350.35638297873
313606.88639817626
121105.29369300911
2539.730243161094
80305.27431610943
164455.00303951366
65007.13449848024
82849.9844224924
101977.63905775076
189946.92287234042
135118.62879939209
215438.84270516716
248589.79217325227
181018.0281155015
104522.34916413373
215443.82256838903
270257.1770516717
317421.4616261398
99427.94908814589
169549.4031155015
271527.04217325227
135118.62879939209
1269.865121580547
53528.54977203647
67546.86474164133
302133.2815349544
177213.41261398175
298338.6257598784
20452.298252279634
288179.704787234
16597.88411854103
77755.58434650456
209064.61778115502
262598.14741641335
285550.33700607903
201430.48746200607
229467.1174012158
93048.74430091184
205250.04255319148
86684.47910334346
166994.73328267477
113451.24392097264
25491.919832826745
283005.626899696
43334.769756838905
50993.799392097266
35690.6797112462
165719.88829787233
265167.75683890574
268992.29179331305
210334.48290273556
122375.15881458965
113461.2036474164
66281.97948328267
142772.67857142855
86689.45896656535
252414.32712765958
128744.40387537994
200150.66261398175
29321.434650455925
65007.13449848024
206524.8875379939
238400.9920212766
149146.90349544073
198870.83776595743
175933.58776595743
206524.8875379939
155521.12841945287
71391.31914893616
240950.68199088145
221818.0474924012
175928.60790273556
67571.76405775076
34415.83472644377
232021.78723404254
300873.37613981764
112186.35866261397
221828.00721884498
281750.70136778115
225652.54217325227
54818.334346504555
262628.02659574465
49733.89399696048
200160.62234042553
138963.08320668692
2564.6295592705164
323820.5858662614
220553.16223404254
285575.23632218846
14033.254559270516
265167.75683890574
113461.2036474164
274101.6314589665
271537.001899696
58627.9297112462
34420.81458966565
279191.0516717325
20387.560030395136
216723.64741641335
299588.5714285714
95598.43427051671
295754.07674772036
36970.504559270514
325075.51139817626
146592.233662614
309787.3313069909
158070.81838905773
68826.68958966565
116005.91375379938
211619.28761398175
158065.83852583586
15293.159954407294
206524.8875379939
15288.18009118541
36960.544832826745
141502.813449848
133848.76367781154
211614.30775075988
321260.93617021275
26771.74468085106
302123.32180851063
321250.976443769
191226.74772036474
75205.8943768997
63732.28951367781
150426.72834346505
52258.68465045592
170814.28837386018
19117.69490881459
127479.51861702127
49704.01481762918
116000.93389057751
234571.4772036474
93048.74430091184
49704.01481762918
313611.8662613982
80305.27431610943
48429.169832826745
305957.8164893617
25486.93996960486
305947.85676291795
195041.32294832825
205245.0626899696
42059.92477203647
326345.3765197568
85404.65425531914
45884.45972644377
313596.9266717325
95603.4141337386
201420.5277355623
11458.665273556231
254959.03723404254
71386.33928571428
186117.40805471124
94323.58928571428
117280.75873860181
66281.97948328267
300848.4768237082
24217.074848024316
224367.73746200607
124919.86892097264
112181.37879939209
200150.66261398175
132568.93882978722
200140.70288753798
10193.780015197568
275356.55699088145
244755.2974924012
72656.20440729483
215443.82256838903
216708.7078267477
271527.04217325227
228192.27241641335
12733.510258358661
114716.1291793313
95603.4141337386
142767.69870820668
175913.6683130699
99427.94908814589
59907.754559270514
140213.02887537994
59902.77469604863
105797.19414893616
319971.15159574465
223107.8320668693
216763.48632218843
209124.3761398176
293259.1652735562
59937.63373860182
73926.06952887538
122355.23936170212
290649.71694528876
52263.66451367781
188667.0980243161
87949.36436170213
52263.66451367781
91773.89931610941
226902.4878419453
145322.36854103341
52263.66451367781
96873.27925531914
48434.14969604863
159350.64323708205
262608.10714285716
243485.43237082066
116005.91375379938
114726.08890577508
76475.75949848024
311057.1964285714
217993.5125379939
127464.57902735562
40785.07978723404
239670.85714285713
7639.11018237082
230732.00265957447
220543.20250759876
183577.67781155015
193766.47796352583
300858.43655015196
230746.94224924012
318701.2864741641
321255.9563069909
299588.5714285714
63732.28951367781
307227.68161094224
256243.84194528873
174653.7629179331
325075.51139817626
149151.8833586626
6374.224924012158
30586.31990881459
263892.9118541033
80320.21390577508
20392.53989361702
165729.8480243161
36980.46428571428
201430.48746200607
86684.47910334346
253704.11170212764
114741.02849544073
177203.45288753798
291944.48138297873
40804.99924012158
266447.5816869301
237126.14703647414
47179.22416413374
177208.43275075988
321255.9563069909
219278.31724924012
228202.23214285713
21662.405015197568
316156.57636778115
146607.17325227964
22937.25
224357.7777355623
319976.1314589665
49708.994680851065
84124.82940729483
30586.31990881459
299578.6117021277
164440.063449848
196316.1679331307
109626.70896656535
174638.82332826746
277901.2670972644
85404.65425531914
93048.74430091184
175913.6683130699
20387.560030395136
130024.22872340425
133838.80395136776
192486.6531155015
99427.94908814589
166994.73328267477
75200.91451367781
113451.24392097264
36955.564969604864
140213.02887537994
107077.01899696048
105802.17401215805
115990.97416413373
75200.91451367781
186122.3879179331
22932.270136778116
294474.251899696
177198.4730243161
321245.9965805471
316141.63677811547
68831.66945288754
318701.2864741641
152961.47872340426
193766.47796352583
203970.21770516716
147862.09878419453
149136.94376899695
35690.6797112462
128744.40387537994
297018.96200607903
65007.13449848024
79030.429331307
105792.21428571428
164445.0433130699
110901.55395136778
59897.794832826745
247304.98746200607
312332.04141337384
192491.63297872338
107067.05927051671
34410.85486322188
48434.14969604863
268972.3723404255
50978.85980243161
76485.719224924
73926.06952887538
7634.130319148936
90509.01405775076
100702.79407294832
186112.42819148937
44609.61474164134
270262.1569148936
87949.36436170213
321250.976443769
322530.8012917933
271527.04217325227
232001.86778115502
228187.29255319148
212889.1527355623
192486.6531155015
289379.8518237082
203965.2378419453
19102.755319148935
280450.9570668693
249859.6572948328
168264.59840425532
108341.90425531914
244760.27735562308
192491.63297872338
313591.94680851063
84119.84954407295
244755.2974924012
224357.7777355623
219283.297112462
84179.60790273556
151756.3518237082
275416.31534954405
94358.44832826748
94318.6094224924
182277.93351063828
290654.69680851063
136398.4536474164
299573.63183890574
2534.75037993921
201415.54787234042
270257.1770516717
193766.47796352583
145322.36854103341
258783.57218844985
132563.95896656535
318701.2864741641
243490.41223404254
101972.65919452887
197591.0129179331
160620.5083586626
8908.975303951367
297023.9418693009
244765.25721884498
246035.12234042553
191211.8081306991
228192.27241641335
325080.4912613982
316146.61664133734
254959.03723404254
124929.8286474164
294479.23176291795
130019.24886018237
136403.43351063828
158070.81838905773
313596.9266717325
17842.849924012156
101982.61892097264
215438.84270516716
203970.21770516716
191226.74772036474
107077.01899696048
84129.80927051671
59917.71428571428
136403.43351063828
63732.28951367781
62467.40425531915
182307.8126899696
35690.6797112462
35695.65957446808
303418.0862462006
265167.75683890574
107086.97872340425
265177.71656534955
268997.2716565349
103262.44376899695
7659.029635258358
14033.254559270516
3824.5349544072947
136408.41337386018
290674.6162613982
66291.93920972644
177203.45288753798
205255.02241641335
253694.15197568387
299578.6117021277
175923.62803951366
130029.20858662613
101972.65919452887
219263.37765957447
5094.400075987842
126194.71390577508
229457.15767477202
38235.38981762918
205240.0828267477
217983.55281155015
98153.10410334346
45884.45972644377
319966.1717325228
276626.422112462
284280.4718844985
277896.28723404254
256228.90235562308
228192.27241641335
7634.130319148936
131289.1139817629
15288.18009118541
277906.2469604863
71371.39969604863
118545.64399696048
203970.21770516716
70101.53457446808
219258.39779635257
108351.86398176292
179743.1831306991
24202.135258358663
239660.89741641335
112171.41907294832
299568.65197568387
224362.75759878417
313606.88639817626
262603.1272796352
36950.585106382976
186122.3879179331
244760.27735562308
5079.460486322188
304677.9916413374
286830.1618541033
19102.755319148935
22932.270136778116
114726.08890577508
289374.8719604863
131289.1139817629
11463.645136778116
323795.68655015196
50973.87993920972
151691.61360182372
223082.93275075988
262598.14741641335
248584.8123100304
221818.0474924012
182287.89323708205
244755.2974924012
210344.44262917934
15283.200227963525
64997.17477203647
117275.77887537994
16563.02507598784
87944.38449848024
174643.80319148937
252414.32712765958
66276.99962006079
109621.72910334346
235841.34232522795
53528.54977203647
252404.3674012158
117280.75873860181
36965.52469604863
302123.32180851063
285555.3168693009
210344.44262917934
181013.04825227964
209059.6379179331
161895.35334346505
193766.47796352583
3804.615501519757
184842.5630699088
66281.97948328267
178458.37841945287
212884.17287234042
68836.64931610943
270252.19718844985
7629.150455927052
28036.629939209724
209059.6379179331
325065.5516717325
200140.70288753798
39500.27507598784
261323.30243161094
303423.0661094225
297078.72036474163
54868.1329787234
47229.02279635258
249909.45592705166
274081.71200607903
57343.125
277906.2469604863
22937.25
34405.875
283005.626899696
24217.074848024316
161890.37348024314
261323.30243161094
3814.575227963526
71381.3594224924
197586.03305471124
164450.02317629178
182297.85296352583
52253.70478723404
31861.16489361702
14018.314969604862
95598.43427051671
295749.0968844985
49713.974544072946
321250.976443769
214159.01785714284
220543.20250759876
277911.2268237082
33131.03001519757
291929.54179331305
262613.08700607903
280450.9570668693
188667.0980243161
274091.6717325228
172099.09308510637
112171.41907294832
2544.7101063829787
281740.7416413374
65007.13449848024
108351.86398176292
216723.64741641335
124924.84878419452
114726.08890577508
158080.7781155015
174653.7629179331
121100.31382978724
108361.82370820668
224377.69718844985
268987.3119300912
298313.726443769
142787.61816109423
253694.15197568387
276641.3617021277
275381.4563069909
99442.88867781154
312332.04141337384
34430.77431610942
137693.21808510637
318711.2462006079
184862.48252279634
141517.7530395137
43344.729483282674
2549.689969604863
322540.76101823704
323810.62613981764
243490.41223404254
237121.16717325227
57363.04445288754
289374.8719604863
211614.30775075988
132573.91869300912
128744.40387537994
305947.85676291795
61182.599544072946
297028.9217325228
268977.35220364743
105802.17401215805
75205.8943768997
155511.16869300912
101972.65919452887
183572.69794832825
300848.4768237082
140213.02887537994
297028.9217325228
71376.37955927051
314866.79179331305
138943.1637537994
193771.4578267477
219258.39779635257
304673.01177811547
216718.66755319148
223082.93275075988
103242.52431610941
5094.400075987842
16563.02507598784
297018.96200607903
224362.75759878417
152971.438449848
121090.35410334346
31856.185030395136
300858.43655015196
101972.65919452887
17827.910334346503
249859.6572948328
89224.20934650456
29301.515197568388
20387.560030395136
308502.52659574465
179733.22340425532
17832.890197568388
258788.55205167172
188662.11816109423
197586.03305471124
225642.5824468085
149141.92363221885
140213.02887537994
206514.92781155015
48429.169832826745
20377.600303951367
21657.425151975684
316151.5965045593
53528.54977203647
177188.51329787233
246035.12234042553
161890.37348024314
314866.79179331305
233286.6724924012
87954.344224924
174638.82332826746
195041.32294832825
121100.31382978724
251129.52241641335
17832.890197568388
267712.46694528876
1264.8852583586627
206509.94794832825
321255.9563069909
256238.86208206686
254949.07750759876
50983.83966565349
173378.9179331307
138943.1637537994
138943.1637537994
99427.94908814589
91773.89931610941
221803.10790273556
326345.3765197568
284280.4718844985
12728.530395136777
54803.394756838905
95603.4141337386
19102.755319148935
166989.75341945287
6364.265197568388
242205.60752279634
39500.27507598784
316151.5965045593
141497.83358662613
189931.98328267477
91763.93958966565
220538.2226443769
294484.2116261398
246065.00151975683
113515.98214285714
151771.29141337387
226962.2462006079
253694.15197568387
169539.44338905773
228177.3328267477
36955.564969604864
48439.129559270514
295749.0968844985
202685.41299392097
261338.2420212766
209064.61778115502
225632.62272036474
133848.76367781154
140222.98860182372
151686.6337386018
24207.115121580548
323805.6462765957
146592.233662614
298298.7868541033
65012.11436170212
122375.15881458965
28031.65007598784
193771.4578267477
244765.25721884498
54803.394756838905
239660.89741641335
254964.0170972644
238386.05243161094
268982.3320668693
183577.67781155015
265162.77697568387
101972.65919452887
155521.12841945287
48439.129559270514
66281.97948328267
244765.25721884498
284290.43161094224
113451.24392097264
317426.4414893617
155531.08814589665
323805.6462765957
223082.93275075988
279191.0516717325
39525.174392097266
258788.55205167172
318711.2462006079
215458.7621580547
82859.94414893616
29316.45478723404
38255.309270516715
103267.42363221884
26771.74468085106
274101.6314589665
235856.2819148936
284290.43161094224
49723.934270516715
270282.07636778115
181032.96770516716
110911.51367781154
118570.54331306991
293219.32636778115
147877.03837386018
12748.449848024316
314886.7112462006
285560.2967325228
284285.45174772036
164455.00303951366
96878.25911854103
150416.76861702127
219268.35752279634
326350.35638297873
288100.02697568387
262608.10714285716
286830.1618541033
221808.08776595743
164445.0433130699
93053.72416413373
309772.3917173252
149141.92363221885
166989.75341945287
228177.3328267477
36955.564969604864
150421.74848024314
239665.87727963526
279176.11208206683
117270.79901215805
302133.2815349544
114721.10904255319
226907.46770516716
101977.63905775076
136393.47378419453
178463.35828267477
140222.98860182372
15288.18009118541
151686.6337386018
16558.045212765956
319976.1314589665
193766.47796352583
266427.66223404254
261333.2621580547
158065.83852583586
215428.88297872338
314876.7515197568
80310.2541793313
248579.8324468085
135118.62879939209
224367.73746200607
288100.02697568387
206509.94794832825
229467.1174012158
126194.71390577508
130009.2891337386
103252.48404255319
184847.5429331307
219253.4179331307
87949.36436170213
198865.85790273556
313591.94680851063
53528.54977203647
202695.37272036474
277906.2469604863
205235.10296352583
3814.575227963526
86679.49924012157
182287.89323708205
98148.12424012157
127474.53875379938
22932.270136778116
141487.87386018236
138948.14361702127
300853.4566869301
239650.9376899696
229467.1174012158
242220.547112462
144037.56382978722
295754.07674772036
29321.434650455925
290654.69680851063
76475.75949848024
15293.159954407294
21662.405015197568
311047.2367021277
160620.5083586626
325075.51139817626
47149.34498480243
70101.53457446808
198870.83776595743
298298.7868541033
64997.17477203647
62457.44452887538
202690.39285714284
322515.8617021277
205240.0828267477
66281.97948328267
91768.91945288754
6359.285334346504
314881.73138297873
209059.6379179331
201405.58814589665
110896.57408814589
272801.8871580547
300863.41641337384
314921.5702887538
38305.10790273556
241005.46048632218
195081.16185410332
321255.9563069909
33121.0702887538
11453.685410334347
289384.8316869301
45884.45972644377
314871.7716565349
288109.9867021277
79030.429331307
322515.8617021277
49708.994680851065
114731.06876899695
163165.2184650456
165719.88829787233
14018.314969604862
140222.98860182372
22932.270136778116
33136.00987841945
152971.438449848
91773.89931610941
59907.754559270514
279186.07180851063
183567.71808510637
158065.83852583586
77760.56420972644
248589.79217325227
203960.25797872338
309782.351443769
325085.47112462006
244755.2974924012
67556.8244680851
161905.31306990882
160620.5083586626
34410.85486322188
280465.8966565349
77760.56420972644
237111.2074468085
94333.54901215805
58642.86930091185
116000.93389057751
283010.60676291795
271546.9616261398
257518.68693009118
316156.57636778115
300868.3962765957
283020.5664893617
73936.02925531914
206529.8674012158
192511.55243161094
226922.4072948328
96888.2188449848
114746.00835866261
75220.83396656535
28051.569528875378
266457.54141337384
17857.78951367781
239675.837006079
22957.169452887538
68851.58890577508
261343.22188449846
54818.334346504555
215458.7621580547
168279.53799392097
326350.35638297873
188677.05775075988
161895.35334346505
50978.85980243161
45889.43958966565
238391.0322948328
210334.48290273556
122370.17895136778
325080.4912613982
294479.23176291795
25481.960106382976
146597.21352583586
186117.40805471124
81570.15957446808
56083.21960486322
195046.30281155015
300843.4969604863
314871.7716565349
73936.02925531914
242205.60752279634
286820.2021276596
219268.35752279634
105802.17401215805
160610.54863221885
11463.645136778116
173373.9380699088
68826.68958966565
265157.797112462
223092.89247720363
323795.68655015196
20377.600303951367
277911.2268237082
94328.56914893616
101967.67933130698
235841.34232522795
193771.4578267477
137663.33890577508
283005.626899696
321255.9563069909
228182.3126899696
95593.45440729483
323805.6462765957
38235.38981762918
33126.05015197568
116000.93389057751
142772.67857142855
200130.74316109423
161890.37348024314
121105.29369300911
128744.40387537994
281725.8020516717
33136.00987841945
191216.78799392097
132563.95896656535
117275.77887537994
202695.37272036474
110891.594224924
274081.71200607903
108356.8438449848
325070.5315349544
124914.88905775076
113451.24392097264
25486.93996960486
299573.63183890574
266432.6420972644
33136.00987841945
152961.47872340426
50978.85980243161
132578.898556231
295754.07674772036
174643.80319148937
183582.65767477202
57363.04445288754
267702.50721884496
21667.384878419452
247319.92705167172
172094.1132218845
101977.63905775076
294484.2116261398
136388.49392097263
45879.47986322188
28041.60980243161
219263.37765957447
198860.87803951366
123645.02393617021
110896.57408814589
133838.80395136776
50978.85980243161
266437.6219604863
221813.06762917934
5084.440349544073
261338.2420212766
144042.54369300912
325065.5516717325
237111.2074468085
126194.71390577508
45874.5
47174.24430091185
107126.81762917932
325140.2496200608
66346.71770516718
62497.28343465045
174643.80319148937
323785.7268237082
33136.00987841945
58637.88943768997
59902.77469604863
219263.37765957447
161900.33320668692
168269.5782674772
274076.73214285716
73936.02925531914
68831.66945288754
179738.2032674772
230741.96238601822
38240.369680851065
94318.6094224924
81575.13943768997
238396.0121580547
187392.25303951366
313596.9266717325
164455.00303951366
202695.37272036474
142767.69870820668
291934.5216565349
6369.245060790273
285555.3168693009
191221.76785714284
215448.80243161094
44609.61474164134
240935.7424012158
276641.3617021277
325080.4912613982
168269.5782674772
303408.1265197568
65012.11436170212
10188.800151975684
181023.00797872338
216723.64741641335
5094.400075987842
28041.60980243161
214178.9373100304
205250.04255319148
258788.55205167172
36975.4844224924
298318.7063069909
16568.004939209724
71391.31914893616
189961.86246200607
132583.87841945287
291939.5015197568
104547.24848024316
300873.37613981764
243495.39209726444
98168.04369300911
33155.92933130699
25501.879559270517
240955.66185410332
127494.45820668692
141507.7933130699
237121.16717325227
277926.16641337384
193781.41755319148
77755.58434650456
7649.069908814589
87964.30395136778
326350.35638297873
35685.69984802431
252414.32712765958
77750.60448328267
22932.270136778116
62462.42439209726
52258.68465045592
21652.4452887538
105802.17401215805
31866.144756838905
174638.82332826746
68826.68958966565
217993.5125379939
87949.36436170213
212884.17287234042
261333.2621580547
225637.60258358662
25481.960106382976
61182.599544072946
189946.92287234042
267702.50721884496
131294.0938449848
303408.1265197568
132568.93882978722
286825.18199088145
24212.094984802432
302128.3016717325
305947.85676291795
170819.26823708205
56083.21960486322
303398.16679331305
99422.969224924
224367.73746200607
140218.0087386018
272801.8871580547
181023.00797872338
45884.45972644377
232006.8476443769
6364.265197568388
161895.35334346505
246030.14247720363
235831.38259878417
5089.420212765957
28031.65007598784
196311.1880699088
217993.5125379939
298303.7667173252
316141.63677811547
186117.40805471124
105802.17401215805
140213.02887537994
19107.73518237082
89229.18920972644
260053.4373100304
228182.3126899696
184847.5429331307
247309.96732522795
71371.39969604863
261333.2621580547
117275.77887537994
179738.2032674772
322520.84156534955
159345.66337386018
11458.665273556231
232006.8476443769
226917.42743161094
11463.645136778116
313596.9266717325
252414.32712765958
140227.9684650456
113446.26405775076
262608.10714285716
150426.72834346505
205240.0828267477
22932.270136778116
272811.8468844985
21657.425151975684
244750.3176291793
76480.73936170213
126199.69376899695
76470.77963525835
58627.9297112462
48434.14969604863
166989.75341945287
212884.17287234042
299578.6117021277
262603.1272796352
47149.34498480243
149141.92363221885
133843.78381458967
49699.034954407296
234556.53761398175
136393.47378419453
242205.60752279634
31871.12462006079
220583.04141337384
6429.003419452887
175988.36626139816
146637.05243161094
215443.82256838903
189927.00341945287
319966.1717325228
201420.5277355623
108346.88411854103
113441.28419452887
151696.5934650456
3814.575227963526
265152.8172492401
184847.5429331307
263887.93199088145
225632.62272036474
317421.4616261398
289384.8316869301
73931.04939209727
63727.30965045592
221818.0474924012
7639.11018237082
151691.61360182372
284285.45174772036
233286.6724924012
163160.2386018237
5089.420212765957
211624.26747720363
81580.11930091184
108346.88411854103
91783.85904255319
44614.59460486322
258783.57218844985
72661.18427051671
30591.299772036473
203965.2378419453
271537.001899696
133853.74354103341
286830.1618541033
30586.31990881459
91788.83890577508
205250.04255319148
59907.754559270514
30596.279635258357
119835.42857142857
187397.23290273556
89234.16907294832
119835.42857142857
230746.94224924012
249869.6170212766
98168.04369300911
42074.86436170212
10198.759878419452
86694.43882978724
281750.70136778115
107086.97872340425
283020.5664893617
168294.47758358662
84144.74886018237
26771.74468085106
285575.23632218846
172114.03267477202
283015.5866261398
257523.66679331305
187407.19262917934
261338.2420212766
77760.56420972644
22947.20972644377
109626.70896656535
168269.5782674772
311057.1964285714
86679.49924012157
226907.46770516716
11463.645136778116
280460.91679331305
207784.7929331307
160610.54863221885
155521.12841945287
50978.85980243161
237106.22758358662
113451.24392097264
261328.2822948328
95593.45440729483
128749.38373860181
63732.28951367781
15283.200227963525
253684.19224924012
253689.172112462
178468.33814589665
294474.251899696
170824.24810030396
93053.72416413373
144037.56382978722
187392.25303951366
284285.45174772036
244755.2974924012
44604.63487841945
205245.0626899696
228182.3126899696
216708.7078267477
177198.4730243161
184842.5630699088
172089.1333586626
193771.4578267477
275361.5368541033
244755.2974924012
144042.54369300912
192496.6128419453
303398.16679331305
138938.1838905775
77755.58434650456
316151.5965045593
276626.422112462
253684.19224924012
42059.92477203647
211609.32788753798
239655.91755319148
150421.74848024314
124919.86892097264
211609.32788753798
163175.17819148937
202690.39285714284
256223.9224924012
321250.976443769
22942.229863221884
124914.88905775076
300848.4768237082
150426.72834346505
6364.265197568388
169539.44338905773
228192.27241641335
318706.266337386
79025.4494680851
277911.2268237082
121105.29369300911
104522.34916413373
297028.9217325228
192501.59270516716
56083.21960486322
8908.975303951367
96878.25911854103
183567.71808510637
28026.670212765956
223087.91261398175
57358.06458966565
104517.36930091184
68826.68958966565
232016.80737082066
58627.9297112462
14003.375379939209
7639.11018237082
14013.335106382978
271522.0623100304
271532.02203647414
304682.9715045593
87944.38449848024
215433.8628419453
132573.91869300912
252419.30699088145
58662.78875379939
126259.45212765956
214233.71580547112
121135.17287234042
20387.560030395136
181008.06838905773
72646.24468085106
289374.8719604863
146597.21352583586
207794.75265957447
207789.77279635257
256238.86208206686
130024.22872340425
281725.8020516717
203970.21770516716
1269.865121580547
319971.15159574465
95603.4141337386
261343.22188449846
307227.68161094224
89224.20934650456
52263.66451367781
244765.25721884498
56078.23974164134
254964.0170972644
174653.7629179331
36955.564969604864
256233.88221884498
42069.88449848024
93053.72416413373
291924.5619300912
67561.804331307
220548.18237082066
12738.490121580546
262613.08700607903
198875.81762917934
152971.438449848
291934.5216565349
21672.364741641337
257513.70706686928
103252.48404255319
154256.24316109423
316161.556231003
87954.344224924
113461.2036474164
312342.00113981764
300858.43655015196
20397.519756838905
219278.31724924012
138953.12348024314
140232.94832826746
235856.2819148936
218003.47226443767
223097.87234042553
108366.80357142857
237131.12689969604
205255.02241641335
191236.7074468085
200165.6022036474
113466.1835106383
182307.8126899696
316171.51595744677
108366.80357142857
93058.70402735562
84139.76899696048
156805.9331306991
85404.65425531914
90504.03419452887
65017.09422492401
161895.35334346505
182287.89323708205
68836.64931610943
104527.32902735562
166989.75341945287
65012.11436170212
207794.75265957447
158060.858662614
239660.89741641335
29316.45478723404
197591.0129179331
31856.185030395136
84134.7891337386
58632.90957446808
10178.840425531915
49708.994680851065
224367.73746200607
95593.45440729483
122370.17895136778
54813.354483282674
141492.85372340426
156790.99354103341
152976.4183130699
58632.90957446808
202685.41299392097
40785.07978723404
283010.60676291795
130019.24886018237
290654.69680851063
283010.60676291795
42054.944908814585
256228.90235562308
30591.299772036473
192496.6128419453
5084.440349544073
119825.4688449848
8913.955167173252
191211.8081306991
12738.490121580546
94333.54901215805
178468.33814589665
286825.18199088145
249864.6371580547
321250.976443769
96868.29939209727
62457.44452887538
281735.76177811547
223082.93275075988
49704.01481762918
178473.31800911852
115995.95402735562
115995.95402735562
214168.97758358662
290654.69680851063
238381.07256838903
43334.769756838905
90509.01405775076
141492.85372340426
191216.78799392097
196326.12765957447
73931.04939209727
14008.355243161093
15293.159954407294
307232.6614741641
47154.32484802431
130024.22872340425
144052.50341945287
101972.65919452887
63727.30965045592
299583.59156534955
140218.0087386018
50973.87993920972
226912.44756838903
266432.6420972644
244755.2974924012
270257.1770516717
169549.4031155015
206509.94794832825
147862.09878419453
196321.14779635257
260058.41717325227
217983.55281155015
228187.29255319148
81575.13943768997
24202.135258358663
71381.3594224924
94348.4886018237
96908.13829787234
45934.25835866261
56142.97796352583
254983.93655015196
314866.79179331305
73921.08966565349
290649.71694528876
186112.42819148937
252409.34726443767
130024.22872340425
205235.10296352583
42054.944908814585
141502.813449848
40785.07978723404
17832.890197568388
271537.001899696
170824.24810030396
136393.47378419453
267712.46694528876
299583.59156534955
90499.054331307
110896.57408814589
206519.90767477202
99427.94908814589
286830.1618541033
146602.19338905773
165724.86816109423
49704.01481762918
170824.24810030396
174648.78305471124
123645.02393617021
49708.994680851065
288114.96656534955
177198.4730243161
257508.7272036474
246045.08206686928
119830.44870820668
302128.3016717325
262613.08700607903
206524.8875379939
229467.1174012158
219268.35752279634
117280.75873860181
119825.4688449848
158070.81838905773
253699.13183890577
184852.52279635257
138948.14361702127
14028.274696048631
248599.75189969604
62462.42439209726
161905.31306990882
210359.38221884498
155531.08814589665
280465.8966565349
244780.19680851063
219283.297112462
312337.0212765957
105817.1136018237
34430.77431610942
219273.33738601822
323810.62613981764
256253.8016717325
94333.54901215805
49708.994680851065
308512.48632218846
24217.074848024316
288105.00683890574
275361.5368541033
319981.11132218846
166994.73328267477
225637.60258358662
262613.08700607903
126194.71390577508
257503.74734042553
238391.0322948328
33136.00987841945
154236.32370820668
280455.9369300912
158070.81838905773
28031.65007598784
299573.63183890574
262608.10714285716
159340.68351063828
73926.06952887538
263887.93199088145
48434.14969604863
95593.45440729483
36960.544832826745
300858.43655015196
247304.98746200607
289374.8719604863
212894.1325987842
172094.1132218845
317421.4616261398
256238.86208206686
152966.45858662613
50973.87993920972
248589.79217325227
93058.70402735562
253679.21238601822
71376.37955927051
272811.8468844985
126194.71390577508
71376.37955927051
16568.004939209724
67556.8244680851
232006.8476443769
93053.72416413373
52258.68465045592
304668.0319148936
225637.60258358662
305957.8164893617
244755.2974924012
183562.7382218845
249864.6371580547
300853.4566869301
215433.8628419453
122375.15881458965
93053.72416413373
291924.5619300912
226912.44756838903
30591.299772036473
147867.0786474164
229457.15767477202
178473.31800911852
22937.25
261328.2822948328
189946.92287234042
61187.57940729483
19107.73518237082
15288.18009118541
323810.62613981764
25486.93996960486
243485.43237082066
221823.02735562308
114726.08890577508
304673.01177811547
73931.04939209727
263887.93199088145
323795.68655015196
254954.05737082066
164450.02317629178
96873.27925531914
297018.96200607903
10188.800151975684
82854.96428571428
216708.7078267477
233286.6724924012
288105.00683890574
161885.39361702127
321250.976443769
279186.07180851063
109616.74924012157
61172.63981762918
56093.17933130699
87979.24354103343
279215.95098784193
167054.49164133737
11523.403495440729
215453.7822948328
38220.45022796353
112171.41907294832
243480.45250759876
168259.61854103341
192496.6128419453
266437.6219604863
36955.564969604864
198870.83776595743
53538.50949848024
5084.440349544073
109621.72910334346
66286.95934650456
237111.2074468085
101972.65919452887
65012.11436170212
234566.49734042553
112171.41907294832
48434.14969604863
196321.14779635257
126194.71390577508
226912.44756838903
177203.45288753798
197595.99278115502
61177.61968085106
198870.83776595743
195046.30281155015
228187.29255319148
76485.719224924
138953.12348024314
207789.77279635257
230741.96238601822
1274.8449848024316
42059.92477203647
188667.0980243161
229472.09726443767
263892.9118541033
128749.38373860181
179753.14285714284
29321.434650455925
191221.76785714284
21667.384878419452
206529.8674012158
205250.04255319148
307232.6614741641
127489.47834346505
2554.6698328267476
76485.719224924
80320.21390577508
285575.23632218846
95613.37386018237
1279.824848024316
43354.68920972644
254973.9768237082
165734.82788753798
109646.62841945289
154261.2230243161
294489.1914893617
312342.00113981764
128764.32332826748
232021.78723404254
147877.03837386018
48444.1094224924
317426.4414893617
61177.61968085106
141502.813449848
42064.904635258354
50978.85980243161
116000.93389057751
-4.979863221884498
258778.59232522795
57353.08472644377
191221.76785714284
187392.25303951366
24207.115121580548
200145.68275075988
3814.575227963526
224357.7777355623
313601.9065349544
224362.75759878417
228182.3126899696
187392.25303951366
119825.4688449848
160615.52849544073
257503.74734042553
24212.094984802432
137668.31876899695
210329.50303951366
268982.3320668693
16568.004939209724
251129.52241641335
26756.805091185408
177198.4730243161
122370.17895136778
281725.8020516717
268987.3119300912
114726.08890577508
212884.17287234042
212889.1527355623
234561.51747720363
110891.594224924
311047.2367021277
210344.44262917934
121095.33396656535
308497.5467325228
7644.090045592705
188667.0980243161
308492.5668693009
19112.715045592704
177198.4730243161
205235.10296352583
8908.975303951367
93053.72416413373
136393.47378419453
31856.185030395136
186122.3879179331
132568.93882978722
197581.05319148937
261333.2621580547
109626.70896656535
133838.80395136776
215438.84270516716
59912.7344224924
311047.2367021277
30576.36018237082
188672.07788753798
169549.4031155015
43329.78989361702
186122.3879179331
173373.9380699088
62452.46466565349
75205.8943768997
44614.59460486322
312327.06155015196
109621.72910334346
3819.55509118541
235841.34232522795
211609.32788753798
108346.88411854103
182297.85296352583
56078.23974164134
25481.960106382976
82854.96428571428
319971.15159574465
173363.97834346505
86679.49924012157
290654.69680851063
326340.3966565349
140218.0087386018
150421.74848024314
68821.70972644376
156786.01367781154
121100.31382978724
169539.44338905773
206504.96808510637
35690.6797112462
205264.98214285713
93088.58320668692
318761.0448328267
297098.6398176292
174673.68237082066
87944.38449848024
77750.60448328267
257503.74734042553
10178.840425531915
165724.86816109423
75205.8943768997
40780.09992401215
89229.18920972644
304677.9916413374
62452.46466565349
267707.48708206683
12743.46998480243
237111.2074468085
239655.91755319148
230741.96238601822
131299.07370820668
31856.185030395136
45884.45972644377
263887.93199088145
135118.62879939209
99422.969224924
160620.5083586626
50983.83966565349
155516.148556231
154246.28343465045
298308.7465805471
119820.48898176292
160620.5083586626
234571.4772036474
161890.37348024314
274081.71200607903
203975.19756838906
196321.14779635257
182292.87310030396
302133.2815349544
100707.77393617021
29311.474924012156
289384.8316869301
160625.4882218845
132573.91869300912
109631.68882978724
196331.10752279634
257513.70706686928
257513.70706686928
201435.46732522795
68846.60904255319
94333.54901215805
63747.22910334346
82874.88373860181
304687.95136778115
109636.66869300911
131318.99316109423
317441.3810790273
63742.24924012158
90523.9536474164
244780.19680851063
205250.04255319148
191231.72758358662
76495.67895136778
113456.22378419452
201425.5075987842
235851.30205167172
67561.804331307
7639.11018237082
131304.05357142858
63737.26937689969
193761.49810030393
90499.054331307
288109.9867021277
127469.55889057751
94323.58928571428
314881.73138297873
237111.2074468085
317416.48176291795
210339.46276595743
305952.8366261398
198860.87803951366
34410.85486322188
302133.2815349544
192486.6531155015
127469.55889057751
3819.55509118541
52248.72492401215
44599.65501519757
254964.0170972644
304677.9916413374
159335.7036474164
34410.85486322188
261338.2420212766
29301.515197568388
237106.22758358662
117280.75873860181
31856.185030395136
124914.88905775076
127474.53875379938
230736.98252279634
178468.33814589665
112176.39893617021
313601.9065349544
201410.56800911852
307222.70174772036
182297.85296352583
132568.93882978722
163160.2386018237
163170.19832826746
220538.2226443769
64992.194908814585
8913.955167173252
107081.99886018237
178463.35828267477
311047.2367021277
286835.1417173252
110896.57408814589
34400.89513677811
53533.529635258354
294479.23176291795
93043.76443768997
228187.29255319148
130024.22872340425
281725.8020516717
89224.20934650456
138943.1637537994
233281.69262917934
77750.60448328267
177198.4730243161
101977.63905775076
118540.6641337386
7639.11018237082
311057.1964285714
100692.83434650456
50978.85980243161
163180.15805471124
50983.83966565349
136393.47378419453
174653.7629179331
16568.004939209724
267702.50721884496
305952.8366261398
210344.44262917934
117265.81914893616
322520.84156534955
38240.369680851065
91773.89931610941
124914.88905775076
298303.7667173252
220533.24278115502
284270.5121580547
99427.94908814589
150421.74848024314
73921.08966565349
35680.71998480243
181023.00797872338
42049.965045592704
3804.615501519757
281735.76177811547
91773.89931610941
289364.91223404254
98153.10410334346
186147.28723404254
47199.14361702128
198930.59612462006
70176.23252279634
19137.614361702126
196306.20820668692
132568.93882978722
243485.43237082066
177188.51329787233
140222.98860182372
24212.094984802432
166989.75341945287
183567.71808510637
220543.20250759876
15283.200227963525
104517.36930091184
81580.11930091184
1264.8852583586627
309772.3917173252
40785.07978723404
228192.27241641335
70101.53457446808
103247.5041793313
36965.52469604863
197591.0129179331
280445.97720364743
43334.769756838905
209069.5976443769
100697.81420972644
132573.91869300912
30591.299772036473
63727.30965045592
98148.12424012157
95608.39399696048
279181.09194528876
47154.32484802431
201425.5075987842
17842.849924012156
163165.2184650456
274086.6918693009
249864.6371580547
237111.2074468085
149146.90349544073
283015.5866261398
197600.9726443769
207794.75265957447
209074.57750759876
6374.224924012158
189946.92287234042
87959.32408814589
258798.5117781155
251144.462006079
42069.88449848024
15308.099544072948
191231.72758358662
234571.4772036474
99447.86854103343
261353.18161094224
7649.069908814589
100717.73366261397
65027.05395136778
81590.07902735562
154251.26329787233
141512.77317629178
39520.19452887538
50983.83966565349
136403.43351063828
267712.46694528876
30581.340045592704
243490.41223404254
118555.60372340425
2534.75037993921
146592.233662614
172099.09308510637
263877.9722644377
192486.6531155015
103252.48404255319
311052.21656534955
195036.34308510637
93048.74430091184
265157.797112462
21652.4452887538
141487.87386018236
270257.1770516717
122365.19908814589
151686.6337386018
70106.51443768997
192491.63297872338
238376.09270516716
8908.975303951367
234566.49734042553
210334.48290273556
290649.71694528876
150421.74848024314
193761.49810030393
7629.150455927052
144047.523556231
10188.800151975684
256223.9224924012
123645.02393617021
114726.08890577508
100692.83434650456
286825.18199088145
11463.645136778116
126189.73404255319
198860.87803951366
73931.04939209727
312327.06155015196
170814.28837386018
147862.09878419453
118545.64399696048
265152.8172492401
1259.905395136778
270257.1770516717
295749.0968844985
247304.98746200607
124924.84878419452
112171.41907294832
193756.51823708205
136393.47378419453
30586.31990881459
73921.08966565349
117265.81914893616
305952.8366261398
137668.31876899695
198860.87803951366
263882.9521276596
53528.54977203647
271522.0623100304
174643.80319148937
87954.344224924
70096.5547112462
238381.07256838903
235836.36246200607
36950.585106382976
272801.8871580547
8918.935030395136
89229.18920972644
240930.7625379939
70106.51443768997
295759.05661094224
228182.3126899696
115995.95402735562
112181.37879939209
249859.6572948328
62452.46466565349
71381.3594224924
239655.91755319148
137658.35904255317
80300.29445288754
305952.8366261398
270247.217325228
81570.15957446808
304677.9916413374
72646.24468085106
151681.65387537994
137668.31876899695
149141.92363221885
109616.74924012157
96873.27925531914
247309.96732522795
93043.76443768997
31851.20516717325
279176.11208206683
279171.13221884496
145317.38867781154
26796.643996960483
235896.12082066867
257573.4654255319
206574.68617021275
207809.69224924012
260043.47758358662
196306.20820668692
326350.35638297873
40780.09992401215
150411.7887537994
66281.97948328267
21662.405015197568
321241.0167173252
308497.5467325228
138948.14361702127
52253.70478723404
304673.01177811547
91778.8791793313
189941.94300911852
89219.22948328267
304677.9916413374
47159.3047112462
118540.6641337386
261333.2621580547
150421.74848024314
203955.2781155015
229457.15767477202
283015.5866261398
216713.6876899696
276626.422112462
63737.26937689969
246035.12234042553
147862.09878419453
76480.73936170213
233291.65235562308
40780.09992401215
216713.6876899696
136403.43351063828
62457.44452887538
326345.3765197568
154246.28343465045
309782.351443769
290654.69680851063
149151.8833586626
288114.96656534955
42054.944908814585
80305.27431610943
118560.58358662613
196321.14779635257
77755.58434650456
218003.47226443767
274096.65159574465
116005.91375379938
98163.06382978724
71396.29901215805
286840.1215805471
95613.37386018237
300873.37613981764
312337.0212765957
85409.63411854103
17857.78951367781
314891.6911094225
272811.8468844985
145332.3282674772
271546.9616261398
118550.62386018237
20387.560030395136
1269.865121580547
214163.99772036474
26756.805091185408
34410.85486322188
198865.85790273556
93043.76443768997
115995.95402735562
161890.37348024314
240925.78267477202
40775.12006079027
93048.74430091184
144037.56382978722
72641.26481762917
121095.33396656535
94323.58928571428
309762.43199088145
286825.18199088145
205240.0828267477
192481.67325227964
168264.59840425532
270257.1770516717
121090.35410334346
281720.82218844985
103247.5041793313
75200.91451367781
186107.44832826746
254954.05737082066
211614.30775075988
7624.170592705167
253674.23252279634
160615.52849544073
164435.08358662613
271522.0623100304
22937.25
73926.06952887538
205230.12310030393
155511.16869300912
283000.64703647414
132558.97910334344
15278.22036474164
314876.7515197568
105792.21428571428
318686.3468844985
3809.5953647416413
297023.9418693009
249844.71770516716
15278.22036474164
127469.55889057751
154231.3438449848
2529.7705167173253
113446.26405775076
188657.13829787233
96863.31952887538
17832.890197568388
232006.8476443769
130009.2891337386
127464.57902735562
21657.425151975684
205230.12310030393
291919.5820668693
12733.510258358661
1254.9255319148936
316136.6569148936
115990.97416413373
272801.8871580547
275341.6174012158
26751.825227963524
284280.4718844985
50973.87993920972
173363.97834346505
263882.9521276596
68821.70972644376
165709.92857142855
124919.86892097264
266432.6420972644
98143.1443768997
85399.67439209727
104527.32902735562
304668.0319148936
288095.047112462
281730.7819148936
76470.77963525835
12723.550531914892
266427.66223404254
225632.62272036474
323785.7268237082
44599.65501519757
219258.39779635257
247295.0277355623
22922.310410334347
66272.0197568389
183557.7583586626
149131.96390577508
237106.22758358662
248579.8324468085
253669.25265957447
101957.71960486322
21652.4452887538
311037.27697568387
211614.30775075988
308542.36550151976
243540.2108662614
44669.37310030395
182347.65159574468
207794.75265957447
67531.92515197568
19102.755319148935
114721.10904255319
195031.3632218845
277896.28723404254
142767.69870820668
80295.31458966565
85389.71466565349
133843.78381458967
44604.63487841945
205225.14323708205
62447.48480243161
300853.4566869301
49699.034954407296
318691.32674772036
175918.64817629178
123640.04407294832
1254.9255319148936
29311.474924012156
265152.8172492401
64992.194908814585
117270.79901215805
299578.6117021277
233276.71276595743
113441.28419452887
52258.68465045592
179738.2032674772
249849.69756838903
240935.7424012158
265157.797112462
150411.7887537994
210339.46276595743
149146.90349544073
45874.5
254954.05737082066
75210.87424012157
294479.23176291795
308497.5467325228
230741.96238601822
173373.9380699088
145312.40881458967
104527.32902735562
48444.1094224924
91778.8791793313
154246.28343465045
192501.59270516716
91783.85904255319
280460.91679331305
228197.25227963526
105812.13373860181
317431.42135258357
19122.674772036473
137688.2382218845
66286.95934650456
6369.245060790273
109641.648556231
154256.24316109423
54808.374620060786
202700.35258358662
7649.069908814589
240935.7424012158
240935.7424012158
288105.00683890574
294474.251899696
276626.422112462
35685.69984802431
305947.85676291795
173354.01861702127
56078.23974164134
35685.69984802431
117260.83928571428
178463.35828267477
91773.89931610941
31846.225303951367
325065.5516717325
90499.054331307
25472.000379939207
57343.125
276631.40197568387
117270.79901215805
3799.635638297872
36950.585106382976
228187.29255319148
291919.5820668693
268972.3723404255
260058.41717325227
195036.34308510637
72641.26481762917
21657.425151975684
35680.71998480243
142757.7389817629
295749.0968844985
196316.1679331307
96863.31952887538
127464.57902735562
219263.37765957447
130009.2891337386
33126.05015197568
39510.23480243161
276626.422112462
258773.61246200607
89224.20934650456
118545.64399696048
62442.50493920972
14003.375379939209
318701.2864741641
169539.44338905773
200130.74316109423
6359.285334346504
281725.8020516717
136383.51405775076
113441.28419452887
274081.71200607903
108341.90425531914
13998.395516717324
160615.52849544073
237111.2074468085
11453.685410334347
251134.50227963526
36955.564969604864
66267.03989361702
318696.30661094224
206514.92781155015
47149.34498480243
183562.7382218845
201415.54787234042
223082.93275075988
45874.5
138943.1637537994
159340.68351063828
187387.27317629178
58632.90957446808
317431.42135258357
221808.08776595743
253679.21238601822
187397.23290273556
2534.75037993921
267702.50721884496
47164.28457446808
131299.07370820668
113441.28419452887
94323.58928571428
308502.52659574465
186107.44832826746
105787.2344224924
175918.64817629178
109621.72910334346
186112.42819148937
84124.82940729483
154236.32370820668
168259.61854103341
54803.394756838905
195041.32294832825
144032.58396656535
84119.84954407295
303403.1466565349
131289.1139817629
124909.90919452887
100692.83434650456
94328.56914893616
319996.0509118541
39560.03343465045
112251.09688449847
59967.51291793313
159360.60296352583
100697.81420972644
6354.3054711246195
30576.36018237082
93053.72416413373
243485.43237082066
16553.06534954407
36955.564969604864
1264.8852583586627
272801.8871580547
172094.1132218845
260063.39703647414
101967.67933130698
2529.7705167173253
197595.99278115502
77755.58434650456
44604.63487841945
84129.80927051671
87959.32408814589
67551.84460486322
164440.063449848
233291.65235562308
68831.66945288754
266427.66223404254
201420.5277355623
164450.02317629178
280450.9570668693
181023.00797872338
289384.8316869301
47154.32484802431
294479.23176291795
225647.5623100304
110901.55395136778
42054.944908814585
109631.68882978724
94333.54901215805
225637.60258358662
318706.266337386
322535.78115501517
201420.5277355623
168274.5581306991
122385.11854103343
174653.7629179331
177198.4730243161
198880.7974924012
244775.21694528873
100707.77393617021
154256.24316109423
233306.59194528873
57368.02431610942
67566.78419452887
28056.549392097262
75220.83396656535
184857.50265957447
226932.3670212766
101992.5786474164
29321.434650455925
70121.45402735562
112196.31838905775
112186.35866261397
100707.77393617021
254973.9768237082
247319.92705167172
166994.73328267477
48439.129559270514
175928.60790273556
156790.99354103341
132573.91869300912
36965.52469604863
36955.564969604864
297023.9418693009
193771.4578267477
217988.53267477202
177188.51329787233
79030.429331307
154246.28343465045
198855.89817629178
177188.51329787233
25491.919832826745
200135.7230243161
130014.26899696048
73936.02925531914
216713.6876899696
300843.4969604863
91778.8791793313
186122.3879179331
223082.93275075988
242210.58738601822
36965.52469604863
216713.6876899696
170814.28837386018
58632.90957446808
73931.04939209727
290649.71694528876
212894.1325987842
155521.12841945287
178463.35828267477
248584.8123100304
116000.93389057751
242205.60752279634
28031.65007598784
170824.24810030396
313601.9065349544
47154.32484802431
133848.76367781154
141497.83358662613
52248.72492401215
168269.5782674772
22942.229863221884
17832.890197568388
62452.46466565349
322530.8012917933
295754.07674772036
8903.995440729483
103247.5041793313
160620.5083586626
54803.394756838905
312327.06155015196
229467.1174012158
165714.90843465045
224357.7777355623
293209.3666413374
95603.4141337386
7634.130319148936
36960.544832826745
48434.14969604863
121090.35410334346
221808.08776595743
137673.29863221885
198870.83776595743
73931.04939209727
59912.7344224924
141497.83358662613
239660.89741641335
285565.27659574465
81585.09916413373
84124.82940729483
193771.4578267477
216723.64741641335
6364.265197568388
215438.84270516716
123650.00379939209
54803.394756838905
242205.60752279634
109626.70896656535
85404.65425531914
262603.1272796352
123645.02393617021
43334.769756838905
89224.20934650456
130019.24886018237
262613.08700607903
313601.9065349544
238381.07256838903
128749.38373860181
192496.6128419453
45874.5
144037.56382978722
56083.21960486322
220548.18237082066
288139.865881459
98217.84232522796
269057.0300151976
233331.49126139816
323810.62613981764
302123.32180851063
156781.03381458967
114726.08890577508
170829.22796352583
67551.84460486322
303403.1466565349
3819.55509118541
19112.715045592704
309777.3715805471
14018.314969604862
11468.625
284280.4718844985
165724.86816109423
80310.2541793313
313601.9065349544
61182.599544072946
225647.5623100304
262613.08700607903
239660.89741641335
161900.33320668692
205250.04255319148
186117.40805471124
211619.28761398175
179753.14285714284
19112.715045592704
86679.49924012157
216723.64741641335
10193.780015197568
117275.77887537994
163185.1379179331
252419.30699088145
294479.23176291795
17847.82978723404
256248.82180851063
24217.074848024316
112181.37879939209
230751.922112462
290664.6565349544
71386.33928571428
28051.569528875378
316166.5360942249
128749.38373860181
61192.559270516715
279201.01139817626
54818.334346504555
35700.63943768997
266452.56155015196
177208.43275075988
183582.65767477202
144067.44300911852
44629.534194528875
298318.7063069909
161915.27279635257
99447.86854103343
40800.0193768997
29331.394376899694
195066.22226443767
108366.80357142857
195056.2625379939
107091.95858662613
237126.14703647414
3819.55509118541
177203.45288753798
156805.9331306991
251139.48214285713
276631.40197568387
99432.92895136778
243490.41223404254
93048.74430091184
238391.0322948328
277911.2268237082
313596.9266717325
312327.06155015196
80310.2541793313
85399.67439209727
103247.5041793313
219273.33738601822
90504.03419452887
193766.47796352583
15293.159954407294
274081.71200607903
261328.2822948328
110901.55395136778
110906.53381458967
253684.19224924012
257508.7272036474
251144.462006079
319976.1314589665
128739.42401215805
257513.70706686928
323805.6462765957
96873.27925531914
121100.31382978724
177203.45288753798
89229.18920972644
161890.37348024314
169549.4031155015
22937.25
17832.890197568388
22942.229863221884
29316.45478723404
93048.74430091184
19112.715045592704
256238.86208206686
174643.80319148937
207789.77279635257
130029.20858662613
256233.88221884498
290649.71694528876
11468.625
260063.39703647414
48429.169832826745
96878.25911854103
89234.16907294832
323795.68655015196
198860.87803951366
284285.45174772036
109626.70896656535
156790.99354103341
248589.79217325227
284280.4718844985
7634.130319148936
214168.97758358662
45889.43958966565
201415.54787234042
280455.9369300912
178478.29787234042
127474.53875379938
112171.41907294832
16568.004939209724
61187.57940729483
42059.92477203647
281740.7416413374
130034.18844984802
261333.2621580547
28036.629939209724
283015.5866261398
59907.754559270514
5084.440349544073
275361.5368541033
201420.5277355623
275351.5771276596
91778.8791793313
206519.90767477202
256228.90235562308
136393.47378419453
285560.2967325228
275356.55699088145
266427.66223404254
42064.904635258354
279186.07180851063
163160.2386018237
17837.870060790272
177198.4730243161
136388.49392097263
100702.79407294832
42089.80395136778
61227.41831306991
255018.79559270517
283070.36512158054
128774.28305471124
17827.910334346503
299573.63183890574
300858.43655015196
265152.8172492401
272801.8871580547
146607.17325227964
286835.1417173252
277901.2670972644
252419.30699088145
183577.67781155015
293204.38677811547
52263.66451367781
124929.8286474164
290654.69680851063
163170.19832826746
313611.8662613982
200145.68275075988
177193.49316109423
183577.67781155015
298313.726443769
249859.6572948328
135123.608662614
70116.47416413373
283010.60676291795
127474.53875379938
257518.68693009118
271537.001899696
118550.62386018237
149156.8632218845
66291.93920972644
100702.79407294832
313611.8662613982
314891.6911094225
257513.70706686928
72661.18427051671
52273.62424012158
258793.5319148936
186122.3879179331
86689.45896656535
244775.21694528873
163180.15805471124
89239.14893617021
49723.934270516715
86689.45896656535
303413.10638297873
233306.59194528873
164464.96276595743
299588.5714285714
146617.13297872338
307252.58092705166
131309.03343465045
262628.02659574465
121125.21314589665
89244.1287993921
156810.91299392097
175948.52735562308
117290.71846504559
14023.294832826747
170844.16755319148
209084.53723404254
5094.400075987842
186132.3476443769
85419.5938449848
50983.83966565349
24212.094984802432
103262.44376899695
288109.9867021277
321250.976443769
212899.11246200607
279186.07180851063
191216.78799392097
300858.43655015196
124924.84878419452
247304.98746200607
138948.14361702127
0.0
130024.22872340425
90499.054331307
8918.935030395136
288109.9867021277
34405.875
81580.11930091184
181027.9878419453
182292.87310030396
215438.84270516716
242220.547112462
63732.28951367781
26756.805091185408
11468.625
150426.72834346505
289379.8518237082
192496.6128419453
35695.65957446808
214163.99772036474
20377.600303951367
242215.56724924012
304682.9715045593
291929.54179331305
322530.8012917933
14018.314969604862
302128.3016717325
175923.62803951366
66286.95934650456
135118.62879939209
221813.06762917934
140227.9684650456
11463.645136778116
75200.91451367781
214168.97758358662
71381.3594224924
66276.99962006079
121100.31382978724
300858.43655015196
152966.45858662613
253684.19224924012
150426.72834346505
149146.90349544073
56078.23974164134
184847.5429331307
211619.28761398175
137663.33890577508
291929.54179331305
317436.40121580544
3814.575227963526
319976.1314589665
281740.7416413374
195046.30281155015
212889.1527355623
173378.9179331307
215448.80243161094
33136.00987841945
219268.35752279634
265167.75683890574
195046.30281155015
35685.69984802431
252419.30699088145
254964.0170972644
14008.355243161093
233291.65235562308
288109.9867021277
289374.8719604863
38235.38981762918
117280.75873860181
56078.23974164134
132568.93882978722
230746.94224924012
281730.7819148936
210334.48290273556
226917.42743161094
299578.6117021277
248579.8324468085
246040.1022036474
29311.474924012156
36945.605243161095
8908.975303951367
79045.36892097264
95633.29331306991
317476.24012158054
68901.38753799391
56142.97796352583
249874.59688449846
113441.28419452887
175918.64817629178
281725.8020516717
312327.06155015196
274091.6717325228
75205.8943768997
303398.16679331305
258788.55205167172
189951.9027355623
300853.4566869301
133848.76367781154
116005.91375379938
95603.4141337386
132573.91869300912
179753.14285714284
200145.68275075988
309777.3715805471
276641.3617021277
7644.090045592705
280450.9570668693
140227.9684650456
112186.35866261397
179743.1831306991
101977.63905775076
164459.98290273556
50988.81952887538
163165.2184650456
109631.68882978724
29321.434650455925
105802.17401215805
183577.67781155015
235851.30205167172
233291.65235562308
242215.56724924012
163185.1379179331
66286.95934650456
184847.5429331307
281745.7215045593
313616.84612462006
95608.39399696048
271541.98176291795
33150.949468085106
168279.53799392097
128754.3636018237
76500.65881458967
191236.7074468085
59917.71428571428
36980.46428571428
22957.169452887538
94338.52887537994
288124.9262917933
63752.20896656535
256248.82180851063
51003.759118541035
205269.962006079
8933.87462006079
145332.3282674772
261353.18161094224
257528.64665653495
323810.62613981764
71391.31914893616
277921.18655015196
132578.898556231
219268.35752279634
319986.09118541033
281735.76177811547
311052.21656534955
247319.92705167172
30591.299772036473
150416.76861702127
166999.71314589665
311057.1964285714
212889.1527355623
38235.38981762918
175928.60790273556
65007.13449848024
309772.3917173252
138948.14361702127
256238.86208206686
178468.33814589665
20387.560030395136
98158.08396656535
7639.11018237082
172094.1132218845
22942.229863221884
91778.8791793313
202690.39285714284
99432.92895136778
246040.1022036474
154241.30357142855
67556.8244680851
6369.245060790273
57358.06458966565
3814.575227963526
73936.02925531914
168274.5581306991
119820.48898176292
209069.5976443769
325080.4912613982
33131.03001519757
179748.16299392097
206524.8875379939
179743.1831306991
34410.85486322188
28041.60980243161
1264.8852583586627
184842.5630699088
238391.0322948328
300858.43655015196
72651.22454407295
281730.7819148936
25491.919832826745
155516.148556231
297028.9217325228
164455.00303951366
312327.06155015196
184842.5630699088
61187.57940729483
149146.90349544073
19107.73518237082
160620.5083586626
181027.9878419453
279181.09194528876
302128.3016717325
206524.8875379939
193771.4578267477
131294.0938449848
16568.004939209724
65012.11436170212
290654.69680851063
122380.13867781154
181032.96770516716
256238.86208206686
133848.76367781154
308512.48632218846
105807.15387537994
126199.69376899695
54813.354483282674
-4.979863221884498
36955.564969604864
201415.54787234042
183577.67781155015
12738.490121580546
1259.905395136778
184847.5429331307
275356.55699088145
12733.510258358661
72661.18427051671
26766.764817629177
30581.340045592704
62457.44452887538
116005.91375379938
270257.1770516717
274076.73214285716
258783.57218844985
30586.31990881459
8928.894756838905
281780.58054711245
81649.83738601823
289449.56990881456
21707.223784194528
325085.47112462006
24202.135258358663
80300.29445288754
251144.462006079
28041.60980243161
260058.41717325227
249869.6170212766
24217.074848024316
163160.2386018237
3819.55509118541
108361.82370820668
268982.3320668693
186122.3879179331
0.0
159345.66337386018
127474.53875379938
207799.73252279634
136403.43351063828
322525.8214285714
243490.41223404254
249869.6170212766
16563.02507598784
105802.17401215805
7649.069908814589
93058.70402735562
82854.96428571428
0.0
61192.559270516715
75205.8943768997
251144.462006079
254973.9768237082
107077.01899696048
20392.53989361702
307242.6212006079
116005.91375379938
298308.7465805471
195056.2625379939
113461.2036474164
174648.78305471124
233296.63221884498
232031.7469604863
44619.574468085106
44619.574468085106
1284.8047112462004
161905.31306990882
34420.81458966565
110921.47340425532
77775.5037993921
253699.13183890577
284300.391337386
123674.90311550151
196336.08738601822
149161.84308510637
240965.6215805471
44629.534194528875
233301.61208206686
251159.40159574468
103272.40349544073
138958.10334346505
81595.05889057751
113471.16337386018
318711.2462006079
1269.865121580547
137688.2382218845
163180.15805471124
118545.64399696048
246045.08206686928
187402.21276595743
290654.69680851063
151701.57332826746
230746.94224924012
110896.57408814589
107072.0391337386
276636.38183890574
76480.73936170213
242210.58738601822
159350.64323708205
168279.53799392097
36955.564969604864
284280.4718844985
189951.9027355623
216713.6876899696
223087.91261398175
184852.52279635257
93053.72416413373
35680.71998480243
124929.8286474164
235846.32218844985
105797.19414893616
121100.31382978724
177203.45288753798
211614.30775075988
1264.8852583586627
211624.26747720363
321250.976443769
243480.45250759876
66286.95934650456
177203.45288753798
149141.92363221885
166999.71314589665
149151.8833586626
164445.0433130699
244760.27735562308
131304.05357142858
84129.80927051671
103247.5041793313
98153.10410334346
243490.41223404254
119820.48898176292
283005.626899696
87959.32408814589
211614.30775075988
158065.83852583586
17842.849924012156
274081.71200607903
293199.4069148936
263887.93199088145
267712.46694528876
56078.23974164134
147872.05851063828
154251.26329787233
309777.3715805471
138943.1637537994
161895.35334346505
22937.25
307222.70174772036
228192.27241641335
152976.4183130699
77750.60448328267
325075.51139817626
215448.80243161094
68831.66945288754
77755.58434650456
30596.279635258357
276636.38183890574
252409.34726443767
288114.96656534955
238396.0121580547
7639.11018237082
6369.245060790273
94333.54901215805
147867.0786474164
244760.27735562308
267712.46694528876
140218.0087386018
179738.2032674772
84129.80927051671
198870.83776595743
35680.71998480243
295754.07674772036
297033.90159574465
115995.95402735562
62452.46466565349
1269.865121580547
42059.92477203647
224357.7777355623
182297.85296352583
229462.1375379939
91763.93958966565
266442.6018237082
138987.98252279634
325130.289893617
228261.99050151976
285625.0349544073
71396.29901215805
182282.91337386018
271532.02203647414
249864.6371580547
114721.10904255319
67556.8244680851
226922.4072948328
181018.0281155015
187392.25303951366
233296.63221884498
103252.48404255319
76475.75949848024
25491.919832826745
272811.8468844985
91773.89931610941
256238.86208206686
170829.22796352583
237111.2074468085
29311.474924012156
228197.25227963526
140222.98860182372
142767.69870820668
277911.2268237082
274086.6918693009
254959.03723404254
267712.46694528876
275366.5167173252
268982.3320668693
221813.06762917934
197605.95250759876
124929.8286474164
49704.01481762918
261343.22188449846
283015.5866261398
288105.00683890574
277916.2066869301
110911.51367781154
223092.89247720363
91783.85904255319
302138.26139817626
107081.99886018237
223097.87234042553
300868.3962765957
154256.24316109423
90504.03419452887
1274.8449848024316
169569.32256838906
308517.46618541033
276646.34156534955
96898.17857142857
288119.9464285714
80315.23404255319
110921.47340425532
165744.78761398175
38250.329407294834
290674.6162613982
189966.84232522795
317441.3810790273
137683.2583586626
24227.034574468085
279191.0516717325
22942.229863221884
94338.52887537994
297038.8814589665
127474.53875379938
109631.68882978724
44619.574468085106
297028.9217325228
112171.41907294832
290659.6766717325
152971.438449848
132568.93882978722
186117.40805471124
79025.4494680851
326345.3765197568
318701.2864741641
181023.00797872338
252409.34726443767
147867.0786474164
275361.5368541033
85404.65425531914
178463.35828267477
1264.8852583586627
224367.73746200607
319971.15159574465
26761.784954407292
45889.43958966565
52253.70478723404
145317.38867781154
58637.88943768997
108346.88411854103
34400.89513677811
209069.5976443769
242215.56724924012
184837.58320668692
277906.2469604863
7644.090045592705
182287.89323708205
12733.510258358661
53538.50949848024
302128.3016717325
146592.233662614
237116.1873100304
105802.17401215805
232006.8476443769
203965.2378419453
94328.56914893616
268977.35220364743
59902.77469604863
244765.25721884498
158065.83852583586
294469.27203647414
87954.344224924
226917.42743161094
247304.98746200607
6364.265197568388
268987.3119300912
314871.7716565349
58627.9297112462
277911.2268237082
242210.58738601822
247304.98746200607
220538.2226443769
207789.77279635257
247304.98746200607
202690.39285714284
216718.66755319148
203965.2378419453
108346.88411854103
76480.73936170213
309777.3715805471
170819.26823708205
67561.804331307
103257.46390577508
94323.58928571428
257513.70706686928
291939.5015197568
101972.65919452887
228187.29255319148
173378.9179331307
316151.5965045593
44604.63487841945
170824.24810030396
58632.90957446808
267702.50721884496
249859.6572948328
138948.14361702127
147862.09878419453
163160.2386018237
96878.25911854103
15288.18009118541
8908.975303951367
144042.54369300912
47159.3047112462
234556.53761398175
214163.99772036474
28041.60980243161
77745.62462006079
237101.24772036474
150421.74848024314
47174.24430091185
100737.65311550151
145387.10676291792
308582.2044072948
44649.45364741641
237111.2074468085
298298.7868541033
323795.68655015196
262603.1272796352
229467.1174012158
144047.523556231
311047.2367021277
181023.00797872338
258788.55205167172
130019.24886018237
131299.07370820668
132578.898556231
239660.89741641335
98148.12424012157
72661.18427051671
316151.5965045593
52248.72492401215
229467.1174012158
210349.4224924012
93048.74430091184
65007.13449848024
82859.94414893616
224362.75759878417
321250.976443769
164455.00303951366
39515.2146656535
81580.11930091184
101982.61892097264
137678.27849544073
271532.02203647414
152971.438449848
228197.25227963526
3814.575227963526
86679.49924012157
175933.58776595743
59912.7344224924
103252.48404255319
31871.12462006079
221823.02735562308
105802.17401215805
164455.00303951366
214178.9373100304
212899.11246200607
288114.96656534955
62472.38411854103
77765.54407294832
272816.82674772036
103267.42363221884
118565.56344984802
128759.34346504559
72671.14399696048
253704.11170212764
119835.42857142857
47174.24430091185
89254.08852583586
272826.7864741641
303413.10638297873
269002.2515197568
19132.63449848024
42064.904635258354
1274.8449848024316
93068.66375379938
6369.245060790273
191221.76785714284
243495.39209726444
211619.28761398175
114721.10904255319
195046.30281155015
202695.37272036474
251129.52241641335
243485.43237082066
223092.89247720363
233281.69262917934
279176.11208206683
10193.780015197568
210339.46276595743
68821.70972644376
52258.68465045592
290654.69680851063
64997.17477203647
192491.63297872338
6369.245060790273
174643.80319148937
270252.19718844985
195046.30281155015
66281.97948328267
100692.83434650456
286830.1618541033
181023.00797872338
257503.74734042553
187392.25303951366
123650.00379939209
40780.09992401215
94323.58928571428
49713.974544072946
291929.54179331305
322515.8617021277
179743.1831306991
202690.39285714284
17832.890197568388
150421.74848024314
38240.369680851065
154241.30357142855
133838.80395136776
268982.3320668693
43334.769756838905
137663.33890577508
132568.93882978722
166999.71314589665
158060.858662614
104522.34916413373
202695.37272036474
303398.16679331305
138938.1838905775
230736.98252279634
177193.49316109423
90494.0744680851
260058.41717325227
188672.07788753798
223082.93275075988
84124.82940729483
165724.86816109423
36955.564969604864
96868.29939209727
170824.24810030396
263882.9521276596
260048.4574468085
145322.36854103341
178473.31800911852
61172.63981762918
127469.55889057751
202695.37272036474
110896.57408814589
124919.86892097264
159350.64323708205
322525.8214285714
175913.6683130699
238396.0121580547
198875.81762917934
44604.63487841945
2539.730243161094
108356.8438449848
318701.2864741641
72646.24468085106
168269.5782674772
254959.03723404254
136388.49392097263
274081.71200607903
150421.74848024314
268977.35220364743
40780.09992401215
35685.69984802431
325070.5315349544
115990.97416413373
217988.53267477202
168269.5782674772
77745.62462006079
271532.02203647414
216713.6876899696
297013.9821428571
289374.8719604863
234581.43693009118
154281.14247720363
118610.38221884498
193846.15577507598
19157.533814589664
209064.61778115502
160610.54863221885
279181.09194528876
325070.5315349544
49708.994680851065
101982.61892097264
257503.74734042553
177188.51329787233
313606.88639817626
206514.92781155015
161885.39361702127
237116.1873100304
118550.62386018237
221808.08776595743
219268.35752279634
149151.8833586626
187392.25303951366
201415.54787234042
35690.6797112462
271537.001899696
40780.09992401215
15288.18009118541
54813.354483282674
130019.24886018237
275356.55699088145
177203.45288753798
26761.784954407292
229462.1375379939
234571.4772036474
203970.21770516716
133843.78381458967
201425.5075987842
81585.09916413373
267707.48708206683
114731.06876899695
25496.899696048633
107077.01899696048
68831.66945288754
316161.556231003
174653.7629179331
279186.07180851063
147882.01823708205
141507.7933130699
183572.69794832825
290664.6565349544
258803.49164133737
28046.589665653493
309787.3313069909
40804.99924012158
86694.43882978724
284290.43161094224
124939.78837386018
246055.04179331305
28046.589665653493
239680.8168693009
178493.23746200607
219278.31724924012
156805.9331306991
243500.3719604863
133858.72340425532
93058.70402735562
35695.65957446808
253699.13183890577
198870.83776595743
168274.5581306991
61187.57940729483
186117.40805471124
24207.115121580548
283010.60676291795
99427.94908814589
270252.19718844985
12738.490121580546
22937.25
177188.51329787233
54803.394756838905
62457.44452887538
63722.32978723404
183562.7382218845
305957.8164893617
196316.1679331307
284275.49202127656
155521.12841945287
138948.14361702127
253679.21238601822
21657.425151975684
201420.5277355623
150416.76861702127
279176.11208206683
86679.49924012157
265157.797112462
220533.24278115502
317426.4414893617
224367.73746200607
215433.8628419453
75200.91451367781
261338.2420212766
281725.8020516717
233281.69262917934
260063.39703647414
145317.38867781154
94318.6094224924
117275.77887537994
238391.0322948328
260053.4373100304
130019.24886018237
169549.4031155015
305947.85676291795
318696.30661094224
290659.6766717325
138943.1637537994
318691.32674772036
271532.02203647414
61182.599544072946
105792.21428571428
174643.80319148937
290659.6766717325
86669.53951367781
189936.96314589665
229467.1174012158
52253.70478723404
133838.80395136776
248589.79217325227
211619.28761398175
158060.858662614
149141.92363221885
249864.6371580547
53528.54977203647
49704.01481762918
-4.979863221884498
293204.38677811547
225632.62272036474
182297.85296352583
101982.61892097264
115995.95402735562
225637.60258358662
219273.33738601822
82854.96428571428
63727.30965045592
304682.9715045593
170824.24810030396
243480.45250759876
203965.2378419453
58632.90957446808
187387.27317629178
63727.30965045592
200145.68275075988
12733.510258358661
181013.04825227964
95603.4141337386
188667.0980243161
169539.44338905773
30586.31990881459
8913.955167173252
126189.73404255319
177193.49316109423
170824.24810030396
266422.68237082066
266417.7025075988
160615.52849544073
230746.94224924012
254988.91641337384
230801.72074468085
156870.67135258357
98197.92287234042
188677.05775075988
76475.75949848024
26751.825227963524
179738.2032674772
54813.354483282674
114726.08890577508
224357.7777355623
112176.39893617021
80310.2541793313
251129.52241641335
232006.8476443769
119830.44870820668
201420.5277355623
135118.62879939209
228192.27241641335
10188.800151975684
98143.1443768997
141497.83358662613
159350.64323708205
163165.2184650456
140222.98860182372
151701.57332826746
290654.69680851063
304677.9916413374
145327.34840425532
217993.5125379939
174643.80319148937
169549.4031155015
24217.074848024316
53533.529635258354
3819.55509118541
133858.72340425532
202695.37272036474
304677.9916413374
177203.45288753798
68836.64931610943
35685.69984802431
160625.4882218845
99437.90881458967
181023.00797872338
137678.27849544073
321265.9160334346
133853.74354103341
214173.9574468085
186137.32750759876
93063.68389057751
136403.43351063828
224382.67705167172
325095.4308510638
0.0
291944.48138297873
230761.88183890577
26776.724544072946
198880.7974924012
288129.90615501517
319996.0509118541
225647.5623100304
212909.07218844985
258803.49164133737
16568.004939209724
323810.62613981764
107091.95858662613
174653.7629179331
242215.56724924012
291939.5015197568
141497.83358662613
87949.36436170213
290659.6766717325
243490.41223404254
40780.09992401215
286830.1618541033
181023.00797872338
52253.70478723404
156790.99354103341
172099.09308510637
123645.02393617021
117265.81914893616
49708.994680851065
164450.02317629178
90494.0744680851
252409.34726443767
186127.36778115502
117270.79901215805
300848.4768237082
309782.351443769
266432.6420972644
166989.75341945287
87954.344224924
209069.5976443769
123645.02393617021
252409.34726443767
297033.90159574465
266432.6420972644
136393.47378419453
304682.9715045593
326350.35638297873
173363.97834346505
57358.06458966565
274086.6918693009
158060.858662614
43329.78989361702
119830.44870820668
15283.200227963525
61172.63981762918
288109.9867021277
63732.28951367781
174638.82332826746
103252.48404255319
232016.80737082066
268977.35220364743
146592.233662614
169549.4031155015
30581.340045592704
141492.85372340426
105807.15387537994
126194.71390577508
308492.5668693009
303403.1466565349
89229.18920972644
295749.0968844985
215438.84270516716
178473.31800911852
11458.665273556231
312322.0816869301
318706.266337386
34410.85486322188
184837.58320668692
209069.5976443769
20392.53989361702
84124.82940729483
314876.7515197568
207799.73252279634
212894.1325987842
265157.797112462
277916.2066869301
65012.11436170212
122370.17895136778
298308.7465805471
234566.49734042553
81570.15957446808
121095.33396656535
61187.57940729483
44604.63487841945
307222.70174772036
181023.00797872338
87949.36436170213
113441.28419452887
272806.86702127656
126199.69376899695
42054.944908814585
195041.32294832825
256238.86208206686
117270.79901215805
31856.185030395136
214168.97758358662
271527.04217325227
20377.600303951367
126214.63335866261
65046.97340425532
196370.94642857142
198935.57598784193
161940.172112462
220538.2226443769
38220.45022796353
312322.0816869301
325070.5315349544
138943.1637537994
297033.90159574465
30591.299772036473
257508.7272036474
203965.2378419453
286835.1417173252
56083.21960486322
170819.26823708205
197600.9726443769
219268.35752279634
1259.905395136778
325080.4912613982
84134.7891337386
52253.70478723404
99427.94908814589
186127.36778115502
304677.9916413374
322525.8214285714
186127.36778115502
201420.5277355623
289374.8719604863
260063.39703647414
290664.6565349544
323800.66641337384
258788.55205167172
96888.2188449848
244765.25721884498
112176.39893617021
105812.13373860181
130029.20858662613
195041.32294832825
243495.39209726444
201430.48746200607
147872.05851063828
95608.39399696048
100717.73366261397
104532.30889057751
179748.16299392097
240950.68199088145
91788.83890577508
49713.974544072946
175933.58776595743
20402.49962006079
289389.81155015196
52273.62424012158
135143.5281155015
279196.0315349544
244775.21694528873
207814.672112462
251154.42173252278
73941.00911854103
39530.15425531915
158090.7378419453
2549.689969604863
58642.86930091185
85419.5938449848
233296.63221884498
122380.13867781154
165734.82788753798
21667.384878419452
253684.19224924012
29316.45478723404
44614.59460486322
40780.09992401215
252409.34726443767
70111.49430091186
207789.77279635257
103247.5041793313
182297.85296352583
280455.9369300912
311047.2367021277
219263.37765957447
3814.575227963526
316146.61664133734
99422.969224924
187397.23290273556
248584.8123100304
118545.64399696048
186122.3879179331
326350.35638297873
30581.340045592704
155521.12841945287
223092.89247720363
214159.01785714284
67551.84460486322
39515.2146656535
239660.89741641335
164440.063449848
181023.00797872338
166999.71314589665
161885.39361702127
114726.08890577508
89234.16907294832
219258.39779635257
142767.69870820668
1269.865121580547
94323.58928571428
305947.85676291795
87954.344224924
303403.1466565349
17832.890197568388
325075.51139817626
168274.5581306991
249854.67743161094
81575.13943768997
86684.47910334346
319971.15159574465
161885.39361702127
280460.91679331305
145317.38867781154
197586.03305471124
235841.34232522795
237116.1873100304
223082.93275075988
108346.88411854103
265162.77697568387
11458.665273556231
15278.22036474164
91778.8791793313
173373.9380699088
93043.76443768997
77750.60448328267
22942.229863221884
228187.29255319148
142772.67857142855
142777.65843465045
258783.57218844985
8913.955167173252
201425.5075987842
254964.0170972644
112171.41907294832
210344.44262917934
147872.05851063828
270247.217325228
188662.11816109423
232016.80737082066
156790.99354103341
286825.18199088145
252414.32712765958
232011.82750759876
207779.8130699088
211614.30775075988
62457.44452887538
68821.70972644376
136393.47378419453
279186.07180851063
300848.4768237082
104517.36930091184
240935.7424012158
305947.85676291795
240925.78267477202
65012.11436170212
234591.39665653495
304717.83054711245
309837.1299392097
156850.75189969604
99437.90881458967
316136.6569148936
115990.97416413373
308497.5467325228
318696.30661094224
131299.07370820668
188672.07788753798
311047.2367021277
267707.48708206683
238391.0322948328
193761.49810030393
224357.7777355623
318706.266337386
103252.48404255319
8908.975303951367
35690.6797112462
128754.3636018237
53528.54977203647
307227.68161094224
10193.780015197568
281730.7819148936
115995.95402735562
12743.46998480243
53538.50949848024
85399.67439209727
191221.76785714284
206524.8875379939
174643.80319148937
147872.05851063828
173378.9179331307
63727.30965045592
247309.96732522795
283015.5866261398
159345.66337386018
186117.40805471124
87959.32408814589
207799.73252279634
203970.21770516716
170829.22796352583
107086.97872340425
224367.73746200607
121100.31382978724
44619.574468085106
311062.1762917933
219268.35752279634
150431.70820668692
249874.59688449846
262613.08700607903
275371.49658054713
89249.10866261397
98163.06382978724
54818.334346504555
286850.0813069909
90518.97378419453
40795.03951367781
293224.306231003
297048.84118541033
6374.224924012158
303418.0862462006
44624.55433130699
79035.40919452887
28041.60980243161
89239.14893617021
35690.6797112462
233286.6724924012
202695.37272036474
265162.77697568387
322520.84156534955
232011.82750759876
61187.57940729483
311047.2367021277
268977.35220364743
257513.70706686928
313596.9266717325
177183.53343465045
177198.4730243161
230741.96238601822
137663.33890577508
126194.71390577508
172099.09308510637
309772.3917173252
163160.2386018237
248589.79217325227
59907.754559270514
76470.77963525835
314876.7515197568
138948.14361702127
198860.87803951366
187392.25303951366
288105.00683890574
234556.53761398175
3809.5953647416413
119825.4688449848
319976.1314589665
12728.530395136777
160615.52849544073
123650.00379939209
35680.71998480243
290654.69680851063
119825.4688449848
22932.270136778116
253679.21238601822
169549.4031155015
247309.96732522795
221803.10790273556
253684.19224924012
206519.90767477202
182287.89323708205
70101.53457446808
87954.344224924
323795.68655015196
150411.7887537994
193766.47796352583
121095.33396656535
105792.21428571428
280455.9369300912
177198.4730243161
168264.59840425532
159335.7036474164
235836.36246200607
47154.32484802431
141487.87386018236
238386.05243161094
105802.17401215805
17832.890197568388
283005.626899696
54808.374620060786
220533.24278115502
163170.19832826746
206524.8875379939
244760.27735562308
215438.84270516716
70111.49430091186
50983.83966565349
90494.0744680851
67556.8244680851
40790.05965045592
169539.44338905773
317421.4616261398
138948.14361702127
70096.5547112462
96868.29939209727
86679.49924012157
127469.55889057751
166989.75341945287
319976.1314589665
16563.02507598784
298293.80699088145
137663.33890577508
70106.51443768997
63727.30965045592
206509.94794832825
175923.62803951366
80300.29445288754
34390.93541033434
21657.425151975684
161915.27279635257
179783.02203647417
186177.16641337384
53598.267857142855
210369.34194528873
189931.98328267477
131289.1139817629
230732.00265957447
196306.20820668692
247314.94718844985
26766.764817629177
10183.8202887538
229462.1375379939
239665.87727963526
304677.9916413374
75195.93465045592
238381.07256838903
118550.62386018237
156790.99354103341
132573.91869300912
34415.83472644377
5084.440349544073
220538.2226443769
160620.5083586626
252404.3674012158
20382.58016717325
136403.43351063828
248589.79217325227
11458.665273556231
293209.3666413374
112181.37879939209
127464.57902735562
146592.233662614
253694.15197568387
270257.1770516717
144042.54369300912
265167.75683890574
289384.8316869301
316146.61664133734
131299.07370820668
224372.71732522795
82854.96428571428
85404.65425531914
150431.70820668692
91783.85904255319
50983.83966565349
147882.01823708205
90513.99392097264
225642.5824468085
66291.93920972644
311067.15615501517
89234.16907294832
19122.674772036473
269002.2515197568
228202.23214285713
85409.63411854103
85414.61398176292
91793.81876899696
205255.02241641335
203985.1572948328
237136.10676291792
177208.43275075988
96888.2188449848
254978.9566869301
142777.65843465045
48434.14969604863
131309.03343465045
159350.64323708205
94323.58928571428
295759.05661094224
14018.314969604862
206509.94794832825
28031.65007598784
156795.97340425532
73926.06952887538
298298.7868541033
2544.7101063829787
290654.69680851063
321241.0167173252
295754.07674772036
303403.1466565349
12728.530395136777
178468.33814589665
270262.1569148936
326345.3765197568
268977.35220364743
33136.00987841945
76475.75949848024
90494.0744680851
181018.0281155015
322525.8214285714
297023.9418693009
75200.91451367781
72656.20440729483
183567.71808510637
252404.3674012158
313601.9065349544
288105.00683890574
86669.53951367781
234561.51747720363
244765.25721884498
280450.9570668693
30581.340045592704
17837.870060790272
28031.65007598784
5084.440349544073
65007.13449848024
80300.29445288754
28026.670212765956
308502.52659574465
119825.4688449848
118540.6641337386
72651.22454407295
155521.12841945287
290649.71694528876
177188.51329787233
103252.48404255319
302128.3016717325
24202.135258358663
258783.57218844985
136398.4536474164
147857.11892097263
281725.8020516717
26766.764817629177
126189.73404255319
91768.91945288754
281735.76177811547
304677.9916413374
163160.2386018237
151691.61360182372
170819.26823708205
47149.34498480243
173368.95820668692
73936.02925531914
191216.78799392097
36955.564969604864
140227.9684650456
309782.351443769
295749.0968844985
149146.90349544073
317431.42135258357
285550.33700607903
186117.40805471124
43339.749620060786
298298.7868541033
182282.91337386018
17837.870060790272
152966.45858662613
265147.83738601825
313601.9065349544
192496.6128419453
58622.94984802431
249854.67743161094
206519.90767477202
289374.8719604863
29301.515197568388
291929.54179331305
197591.0129179331
325065.5516717325
66276.99962006079
52253.70478723404
280445.97720364743
158080.7781155015
257553.54597264435
63787.068009118535
280520.67515197565
155565.94718844985
68831.66945288754
22922.310410334347
226912.44756838903
87954.344224924
277901.2670972644
308502.52659574465
257513.70706686928
202685.41299392097
270252.19718844985
254964.0170972644
316151.5965045593
235831.38259878417
181023.00797872338
40785.07978723404
11453.685410334347
216713.6876899696
175928.60790273556
187392.25303951366
262603.1272796352
44614.59460486322
2539.730243161094
56073.25987841945
66281.97948328267
160625.4882218845
277906.2469604863
127469.55889057751
286835.1417173252
319976.1314589665
182292.87310030396
128754.3636018237
47159.3047112462
2534.75037993921
47164.28457446808
239670.85714285713
70106.51443768997
187397.23290273556
142777.65843465045
15288.18009118541
44609.61474164134
59917.71428571428
216723.64741641335
81580.11930091184
248594.77203647414
277921.18655015196
47164.28457446808
142777.65843465045
277921.18655015196
247319.92705167172
322535.78115501517
321270.8958966565
183587.63753799393
29321.434650455925
191236.7074468085
167019.6325987842
90513.99392097264
313616.84612462006
182317.77241641335
76490.69908814589
140227.9684650456
178488.2575987842
127484.49848024316
133848.76367781154
183577.67781155015
150421.74848024314
295749.0968844985
137673.29863221885
7644.090045592705
193766.47796352583
322520.84156534955
155521.12841945287
48434.14969604863
91768.91945288754
223087.91261398175
184847.5429331307
54798.41489361702
281725.8020516717
206519.90767477202
305947.85676291795
165714.90843465045
71381.3594224924
260058.41717325227
20377.600303951367
156790.99354103341
215443.82256838903
293194.4270516717
85394.69452887538
6369.245060790273
136393.47378419453
50973.87993920972
145322.36854103341
300853.4566869301
58617.96998480243
110896.57408814589
86684.47910334346
112171.41907294832
146592.233662614
237116.1873100304
7634.130319148936
286820.2021276596
309777.3715805471
31861.16489361702
141487.87386018236
192491.63297872338
93053.72416413373
50973.87993920972
283000.64703647414
215443.82256838903
323795.68655015196
183562.7382218845
223092.89247720363
240935.7424012158
169534.46352583586
42054.944908814585
118550.62386018237
182287.89323708205
65002.154635258354
281735.76177811547
207784.7929331307
52248.72492401215
89229.18920972644
182292.87310030396
145312.40881458967
237111.2074468085
316151.5965045593
211609.32788753798
110896.57408814589
75205.8943768997
12733.510258358661
12733.510258358661
72656.20440729483
322525.8214285714
115995.95402735562
118550.62386018237
30591.299772036473
82849.9844224924
49708.994680851065
108356.8438449848
309772.3917173252
95598.43427051671
11468.625
321250.976443769
270252.19718844985
266432.6420972644
11463.645136778116
110891.594224924
163160.2386018237
53533.529635258354
67551.84460486322
99417.98936170213
19112.715045592704
183567.71808510637
7629.150455927052
203965.2378419453
293204.38677811547
52248.72492401215
305947.85676291795
277906.2469604863
93043.76443768997
144032.58396656535
116000.93389057751
147891.97796352583
24251.933890577508
285625.0349544073
130098.92667173252
75235.773556231
138938.1838905775
89224.20934650456
239655.91755319148
67546.86474164133
93058.70402735562
16563.02507598784
58622.94984802431
262608.10714285716
93053.72416413373
270252.19718844985
29306.495060790272
283010.60676291795
144042.54369300912
36955.564969604864
254964.0170972644
178468.33814589665
318696.30661094224
158070.81838905773
279186.07180851063
108346.88411854103
299578.6117021277
228197.25227963526
174643.80319148937
71371.39969604863
215443.82256838903
321255.9563069909
89224.20934650456
252414.32712765958
137678.27849544073
89224.20934650456
98153.10410334346
159350.64323708205
279181.09194528876
319976.1314589665
43344.729483282674
67561.804331307
196316.1679331307
211624.26747720363
35695.65957446808
98153.10410334346
7644.090045592705
187407.19262917934
210349.4224924012
302133.2815349544
207804.71238601822
235851.30205167172
223097.87234042553
122390.09840425532
216733.60714285713
235846.32218844985
42074.86436170212
249884.55661094224
319991.0710486322
281745.7215045593
39530.15425531915
195061.2424012158
53543.48936170212
299593.5512917933
44629.534194528875
249869.6170212766
123654.98366261397
8928.894756838905
1269.865121580547
271532.02203647414
34415.83472644377
156795.97340425532
155516.148556231
159345.66337386018
314881.73138297873
28031.65007598784
22932.270136778116
156795.97340425532
80300.29445288754
195036.34308510637
132573.91869300912
295754.07674772036
12728.530395136777
239660.89741641335
149146.90349544073
130014.26899696048
52253.70478723404
200145.68275075988
79025.4494680851
223082.93275075988
160620.5083586626
277906.2469604863
163160.2386018237
146597.21352583586
266437.6219604863
300848.4768237082
39505.25493920973
14013.335106382978
112171.41907294832
307222.70174772036
89229.18920972644
133848.76367781154
154236.32370820668
202690.39285714284
284285.45174772036
145312.40881458967
246030.14247720363
186122.3879179331
152966.45858662613
28031.65007598784
146597.21352583586
11463.645136778116
133838.80395136776
105797.19414893616
300858.43655015196
206509.94794832825
24202.135258358663
140222.98860182372
113446.26405775076
170814.28837386018
47159.3047112462
302128.3016717325
214159.01785714284
316151.5965045593
84129.80927051671
179738.2032674772
16558.045212765956
133848.76367781154
132568.93882978722
209059.6379179331
325075.51139817626
56078.23974164134
253674.23252279634
1264.8852583586627
137678.27849544073
224357.7777355623
26756.805091185408
280465.8966565349
210339.46276595743
122365.19908814589
323805.6462765957
6369.245060790273
177193.49316109423
206519.90767477202
99432.92895136778
184842.5630699088
50978.85980243161
184847.5429331307
17832.890197568388
226902.4878419453
277906.2469604863
35685.69984802431
253679.21238601822
114721.10904255319
305952.8366261398
217983.55281155015
161885.39361702127
123650.00379939209
76475.75949848024
223077.95288753798
299578.6117021277
323800.66641337384
53523.569908814585
214159.01785714284
196311.1880699088
163155.2587386018
151701.57332826746
274126.53077507595
3874.3335866261395
212958.87082066867
10243.578647416412
207799.73252279634
305937.89703647414
109621.72910334346
36960.544832826745
50973.87993920972
109621.72910334346
61187.57940729483
165719.88829787233
217983.55281155015
155521.12841945287
98153.10410334346
184837.58320668692
280455.9369300912
179748.16299392097
54803.394756838905
109621.72910334346
132573.91869300912
220538.2226443769
313596.9266717325
193771.4578267477
196321.14779635257
140218.0087386018
24212.094984802432
117275.77887537994
98148.12424012157
